Baseline 100%T,,TigE_100x,,TigE_200x,,
Wavelength (nm),Abs,Wavelength (nm),Abs,Wavelength (nm),Abs,
799.9925537,0.0002224692143,799.9925537,0.06655951589,799.9925537,0.0337706767,
798.9872437,0.0004302307498,798.9872437,0.06672393531,798.9872437,0.03398099169,
798.0161133,0.0001674886153,798.0161133,0.06725073606,798.0161133,0.03438822553,
797.0098877,-3.504818596E-005,797.0098877,0.06819169968,797.0098877,0.0349104777,
796.003418,0.0002658525773,796.003418,0.06879910827,796.003418,0.03508199751,
794.996521,-0.0001153843186,794.996521,0.06913986802,794.996521,0.03604995832,
793.9890747,-2.837009379E-005,793.9890747,0.06969086081,793.9890747,0.03597421944,
793.0160522,0.0003821414139,793.0160522,0.07010988891,793.0160522,0.03574391082,
792.0079346,0.0001850205299,792.0079346,0.07062546909,792.0079346,0.03606905416,
790.9993896,-0.0004332185199,790.9993896,0.07144419849,790.9993896,0.03712506965,
789.9904175,-0.0001636202651,789.9904175,0.0713339597,789.9904175,0.03686106578,
789.0158081,0.0002363773237,789.0158081,0.07131245732,789.0158081,0.03692630306,
788.0061035,-1.558307304E-005,788.0061035,0.07275984436,788.0061035,0.03786135837,
786.9960327,3.228100104E-005,786.9960327,0.07300335914,786.9960327,0.03752208129,
785.9854126,0.0002868853917,785.9854126,0.07312557101,785.9854126,0.03740018234,
785.0093384,0.0005728976685,785.0093384,0.07332788408,785.0093384,0.03762191534,
783.9980469,0.0001648472389,783.9980469,0.07401305437,783.9980469,0.03797353059,
782.9863892,0.0004516860936,782.9863892,0.07452075183,782.9863892,0.03837827593,
782.0091553,0.0003792655771,782.0091553,0.07473057508,782.0091553,0.03904186562,
780.996582,0.0006238855422,780.996582,0.07535558194,780.996582,0.03870160878,
779.9836426,0.0003444976464,779.9836426,0.07576316595,779.9836426,0.03914445639,
779.0054321,0.0003424251045,779.0054321,0.07593251765,779.0054321,0.03946302831,
777.9917603,0.0005075060762,777.9917603,0.07651074976,777.9917603,0.03949546069,
777.0126343,0.0005303648068,777.0126343,0.07703890651,777.0126343,0.0398869589,
775.99823,0.0007624152349,775.99823,0.07706765085,775.99823,0.03989155591,
774.9832764,0.000396261923,774.9832764,0.07849033922,774.9832764,0.04021667317,
774.0031128,-0.0001648105681,774.0031128,0.07904400676,774.0031128,0.04081695527,
772.9874878,0.0003059763694,772.9874878,0.07884842157,772.9874878,0.04069821909,
772.0065918,6.567766832E-005,772.0065918,0.07914274186,772.0065918,0.04103785381,
770.9902344,-0.0002854801423,770.9902344,0.0794762671,770.9902344,0.04167531803,
770.0084839,-4.690284186E-005,770.0084839,0.07997126132,770.0084839,0.04169264063,
768.991333,-0.000224062911,768.991333,0.08038796484,768.991333,0.0417685844,
768.0089111,-0.0004630601034,768.0089111,0.08062376827,768.0089111,0.04204371944,
766.9910278,-0.0002146451734,766.9910278,0.08115594834,766.9910278,0.04175798222,
766.0078125,-0.0002556263353,766.0078125,0.08081561327,766.0078125,0.04225876182,
764.9891968,-0.0009062534082,764.9891968,0.08183977753,764.9891968,0.042415943,
764.0053101,-0.0007051305147,764.0053101,0.08218502253,764.0053101,0.04271379113,
762.9858398,-0.0009747545118,762.9858398,0.08305127174,762.9858398,0.04334577173,
762.0012207,-0.001120657776,762.0012207,0.08350229263,762.0012207,0.0437245518,
761.0161743,-0.001154634636,761.0161743,0.08414611965,761.0161743,0.04394656047,
759.9956055,-0.001007503131,759.9956055,0.08385764807,759.9956055,0.04341167584,
759.0098877,-0.001292373636,759.0098877,0.08444707096,759.0098877,0.04386619851,
757.9885864,-0.00163616892,757.9885864,0.08440192044,757.9885864,0.04423812404,
757.0020752,-0.001857327414,757.0020752,0.08504570276,757.0020752,0.04432652891,
756.0152588,-0.001908359933,756.0152588,0.08562406152,756.0152588,0.04449641705,
754.9928589,-0.002431998495,754.9928589,0.08651784062,754.9928589,0.04530232027,
754.005249,-0.002768154256,754.005249,0.08700944483,754.005249,0.04544663802,
753.017334,-0.002935208846,753.017334,0.08734289557,753.017334,0.04565230384,
751.9938354,-0.00347147882,751.9938354,0.08800500631,751.9938354,0.04606433213,
751.005249,-0.003666653531,751.005249,0.08832929283,751.005249,0.04599163309,
750.0162354,-0.004135822412,750.0162354,0.08845364302,750.0162354,0.04651184008,
748.9915771,-0.004128130153,748.9915771,0.08886964619,748.9915771,0.04628451541,
748.0018921,-0.004292150959,748.0018921,0.08931408823,748.0018921,0.04646168277,
747.0117798,-0.004994702991,747.0117798,0.08985448629,747.0117798,0.04712978378,
745.9860229,-0.005096538924,745.9860229,0.09005127847,745.9860229,0.04695583507,
744.9952393,-0.005594424438,744.9952393,0.09056071192,744.9952393,0.04735541716,
744.0040894,-0.00614666706,744.0040894,0.09126568586,744.0040894,0.04762328044,
743.0126343,-0.00686518522,743.0126343,0.09175533801,743.0126343,0.04836868867,
741.9854126,-0.006896880921,741.9854126,0.0920445919,741.9854126,0.04816213623,
740.9931641,-0.007541203406,740.9931641,0.09279537946,740.9931641,0.04823430255,
740.0006714,-0.007970322855,740.0006714,0.09319554269,740.0006714,0.04838388041,
739.0078125,-0.008647466078,739.0078125,0.09343969077,739.0078125,0.04903964326,
738.0145874,-0.009100387804,738.0145874,0.0940650627,738.0145874,0.0494244732,
736.9854736,-0.009685711935,736.9854736,0.09447412193,736.9854736,0.04913456738,
735.9915161,-0.01032262668,735.9915161,0.09484614432,735.9915161,0.04980171472,
734.9972534,-0.01111361105,734.9972534,0.09546045214,734.9972534,0.04985757545,
734.0025635,-0.01181444339,734.0025635,0.0960726887,734.0025635,0.05032494292,
733.0076294,-0.01228964329,733.0076294,0.09615501761,733.0076294,0.05031607673,
732.0122681,-0.01334985439,732.0122681,0.09662205726,732.0122681,0.05086067319,
731.0166016,-0.013900402,731.0166016,0.09725054353,731.0166016,0.05108930171,
729.9849854,-0.01469641365,729.9849854,0.09806822985,729.9849854,0.05127886683,
728.9886475,-0.01531468332,728.9886475,0.09849975258,728.9886475,0.05166192353,
727.9919434,-0.0156209413,727.9919434,0.09863062203,727.9919434,0.05168591812,
726.994812,-0.0162959937,726.994812,0.09942387044,726.994812,0.05203259364,
725.9974365,-0.01656174287,725.9974365,0.09955322742,725.9974365,0.05231317133,
724.9996948,-0.01698617823,724.9996948,0.1002562344,724.9996948,0.05274393409,
724.0015869,-0.01727359742,724.0015869,0.1007464081,724.0015869,0.05285828933,
723.0031738,-0.01700121351,723.0031738,0.1009834707,723.0031738,0.05272966996,
722.0043945,-0.01713998988,722.0043945,0.1015967205,722.0043945,0.05319223925,
721.005249,-0.01701500453,721.005249,0.1017084345,721.005249,0.05337933078,
720.0057983,-0.01688285917,720.0057983,0.1025487632,720.0057983,0.05364727601,
719.0060425,-0.01683953404,719.0060425,0.1029869616,719.0060425,0.05420134962,
718.0058594,-0.01654370315,718.0058594,0.1032932475,718.0058594,0.05438863859,
717.0054321,-0.01627589762,717.0054321,0.1036566719,717.0054321,0.05450205132,
716.0045776,-0.01562618464,716.0045776,0.1041817591,716.0045776,0.05495808274,
715.003418,-0.01508812327,715.003418,0.1046341658,715.003418,0.05517920852,
714.0019531,-0.01452851575,714.0019531,0.1050003543,714.0019531,0.05538894981,
713.0001221,-0.01385657582,713.0001221,0.1053084657,713.0001221,0.05550818145,
711.9979858,-0.01309132297,711.9979858,0.1054180413,711.9979858,0.05566181615,
710.9954834,-0.01235934068,710.9954834,0.1060106158,710.9954834,0.055946365,
709.9926758,-0.01163575053,709.9926758,0.1063658744,709.9926758,0.05619536713,
708.9894409,-0.01074527111,708.9894409,0.1065298617,708.9894409,0.05629607663,
707.9859619,-0.0101369461,707.9859619,0.1070860624,707.9859619,0.05665559694,
706.9821167,-0.009158332832,706.9821167,0.1071456298,706.9821167,0.0569136776,
706.013855,-0.008279566653,706.013855,0.1076288894,706.013855,0.0569307059,
705.0093384,-0.007305307314,705.0093384,0.1077767685,705.0093384,0.05709405616,
704.0045166,-0.00665074354,704.0045166,0.1079547629,704.0045166,0.05737721175,
702.9993286,-0.005677213427,702.9993286,0.1081145108,702.9993286,0.05743893236,
701.9938354,-0.005167861003,701.9938354,0.1085195467,701.9938354,0.05777352303,
700.9880371,-0.00434407685,700.9880371,0.1090194434,700.9880371,0.0577875711,
700.0178223,-0.003707156284,700.0178223,0.1091991514,700.0178223,0.05820748955,
699.0113525,-0.002800150542,699.0113525,0.1095663831,699.0113525,0.05859869346,
698.0045166,-0.001622036449,698.0045166,0.109525539,698.0045166,0.05873185024,
696.9974365,-0.001166407135,696.9974365,0.1097136587,696.9974365,0.05875588581,
695.9900513,-0.0007507685805,695.9900513,0.1101807356,695.9900513,0.05886836722,
694.9822388,5.402737588E-005,694.9822388,0.1101684868,694.9822388,0.05874945223,
694.0100708,0.0006526353536,694.0100708,0.1102303788,694.0100708,0.05880238488,
693.0015869,0.001175336423,693.0015869,0.1102279723,693.0015869,0.0589841716,
691.9927979,0.001959581394,691.9927979,0.1108516529,691.9927979,0.05879974738,
690.9838257,0.00240115542,690.9838257,0.1108499467,690.9838257,0.05935002118,
690.010498,0.003147045616,690.010498,0.1108323038,690.010498,0.05912619829,
689.0007324,0.003601209261,689.0007324,0.1110420823,689.0007324,0.05910418928,
687.9906616,0.003753512166,687.9906616,0.1117772758,687.9906616,0.05971843377,
687.0163574,0.004712047521,687.0163574,0.1115687862,687.0163574,0.05914565548,
686.0057373,0.005092335399,686.0057373,0.1118173227,686.0057373,0.05934052169,
684.9946899,0.00547135761,684.9946899,0.111913681,684.9946899,0.05940741673,
683.9833374,0.005908646155,683.9833374,0.1124124005,683.9833374,0.05947263166,
683.0078125,0.006549335551,683.0078125,0.112434566,683.0078125,0.05912830308,
681.9959106,0.007277751341,681.9959106,0.1122843549,681.9959106,0.05914162099,
680.9835815,0.00718165515,680.9835815,0.1128396243,680.9835815,0.05966847762,
680.0071411,0.008187836036,680.0071411,0.1127932072,680.0071411,0.05947120488,
678.9942017,0.008423329331,678.9942017,0.1129671931,678.9942017,0.05957490951,
678.0171509,0.008647013456,678.0171509,0.1133323908,678.0171509,0.05992066115,
677.0036621,0.008988584392,677.0036621,0.1133749709,677.0036621,0.05994975194,
675.9897461,0.009477606975,675.9897461,0.1138223186,675.9897461,0.0598192811,
675.0117798,0.009660754353,675.0117798,0.1139713749,675.0117798,0.06012788787,
673.9972534,0.0100033097,673.9972534,0.1145387143,673.9972534,0.06027810648,
672.9824829,0.009999441914,672.9824829,0.1149317771,672.9824829,0.06073325127,
672.0036011,0.01046311297,672.0036011,0.1149193347,672.0036011,0.06041341648,
670.9881592,0.01047708746,670.9881592,0.1155780554,670.9881592,0.06089991331,
670.008728,0.010982126,670.008728,0.1157200187,670.008728,0.06088189408,
668.9926147,0.01114678662,668.9926147,0.1163701117,668.9926147,0.06128568202,
668.0125732,0.01103493478,668.0125732,0.1167851239,668.0125732,0.0615718551,
666.9958496,0.01055208687,666.9958496,0.1170147061,666.9958496,0.06161618233,
666.0151978,0.01062333304,666.0151978,0.1171859875,666.0151978,0.06162277609,
664.9979248,0.01056253724,664.9979248,0.1173078567,664.9979248,0.06154429168,
664.0166016,0.01069183089,664.0166016,0.1175713092,664.0166016,0.06181971356,
662.9987183,0.0104367286,662.9987183,0.1179621369,662.9987183,0.06187075377,
662.0169067,0.01031588763,662.0169067,0.1185101271,662.0169067,0.06230223179,
660.9983521,0.01055084076,660.9983521,0.1185005307,660.9983521,0.06221881509,
660.0158691,0.01046109758,660.0158691,0.1193183511,660.0158691,0.06230411306,
658.9967651,0.01087350119,658.9967651,0.1196386293,658.9967651,0.06268198043,
658.0137329,0.01115398388,658.0137329,0.1197040305,658.0137329,0.06251050532,
656.9940186,0.01092786342,656.9940186,0.1202015802,656.9940186,0.06318030506,
656.010376,0.01096699294,656.010376,0.1203654483,656.010376,0.06312964857,
654.9900513,0.0108463224,654.9900513,0.1210693642,654.9900513,0.06336759031,
654.0057983,0.01080975123,654.0057983,0.1215396449,654.0057983,0.06351938099,
652.9848022,0.01095432974,652.9848022,0.1216743588,652.9848022,0.06393951923,
652.000061,0.01091100648,652.000061,0.1224215776,652.000061,0.06427015364,
651.0149536,0.01088295039,651.0149536,0.1231862754,651.0149536,0.06460149586,
649.993103,0.01098464802,649.993103,0.1235775799,649.993103,0.06447964907,
649.0074463,0.01099502854,649.0074463,0.1238137409,649.0074463,0.06491318345,
647.9849243,0.01104404218,647.9849243,0.1240888834,647.9849243,0.06507565826,
646.9987183,0.0112154996,646.9987183,0.1247514337,646.9987183,0.06536439806,
646.012207,0.0110661611,646.012207,0.1256326586,646.012207,0.06586572528,
644.9888306,0.01136927493,644.9888306,0.1257848591,644.9888306,0.06580598652,
644.001709,0.01115512569,644.001709,0.1265602261,644.001709,0.0661137253,
643.0143433,0.0110020116,643.0143433,0.1274500191,643.0143433,0.06693204492,
641.9901123,0.01099744439,641.9901123,0.1282388717,641.9901123,0.06713896245,
641.0021362,0.0111796679,641.0021362,0.128231734,641.0021362,0.067280747,
640.013916,0.01111898012,640.013916,0.1288223714,640.013916,0.06775116175,
638.9887695,0.01105129067,638.9887695,0.1293711364,638.9887695,0.06794781238,
637.9998779,0.01089380682,637.9998779,0.1303520948,637.9998779,0.06844315678,
637.0108643,0.01101897657,637.0108643,0.1306423992,637.0108643,0.06875938177,
635.9848022,0.01116163284,635.9848022,0.1310426444,635.9848022,0.06880784035,
634.9951782,0.01075444836,634.9951782,0.1320790946,634.9951782,0.06958334893,
634.005188,0.01112402603,634.005188,0.1324104518,634.005188,0.06956067681,
633.0150146,0.01115475409,633.0150146,0.1330533624,633.0150146,0.07014390081,
631.987854,0.01089149714,631.987854,0.1335559934,631.987854,0.07047917694,
630.9970093,0.01088947989,630.9970093,0.1342505962,630.9970093,0.07074530423,
630.0059814,0.0109515693,630.0059814,0.1346323192,630.0059814,0.07107070833,
629.0146484,0.0107470192,629.0146484,0.1356598288,629.0146484,0.07168176025,
627.9862671,0.01063237805,627.9862671,0.1364018619,627.9862671,0.0718722567,
626.9943848,0.01078069303,626.9943848,0.1367846578,626.9943848,0.0723804459,
626.0022583,0.01097365655,626.0022583,0.1373027712,626.0022583,0.07251912355,
625.0097656,0.01082997397,625.0097656,0.1378554404,625.0097656,0.07303117216,
624.0170898,0.0106718,624.0170898,0.1386014819,624.0170898,0.07327174395,
622.9873047,0.01059431303,622.9873047,0.139292419,622.9873047,0.07397478074,
621.9939575,0.01023827866,621.9939575,0.1402802914,621.9939575,0.07419767231,
621.0004883,0.01022322476,621.0004883,0.1407178789,621.0004883,0.07461867481,
620.0065918,0.01024933066,620.0065918,0.1413074732,620.0065918,0.07490808517,
619.0125122,0.01000187919,619.0125122,0.1419621259,619.0125122,0.07556950301,
618.0181274,0.01013463642,618.0181274,0.1425712556,618.0181274,0.07584786415,
616.9866333,0.01001626253,616.9866333,0.1432002783,616.9866333,0.07639301568,
615.9917603,0.009752212092,615.9917603,0.1440851092,615.9917603,0.07660165429,
614.996582,0.009732304141,614.996582,0.1445251703,614.996582,0.07719128579,
614.0011597,0.009702285752,614.0011597,0.1450529844,614.0011597,0.07740955055,
613.0053101,0.00944324024,613.0053101,0.1458486319,613.0053101,0.07795552909,
612.0093384,0.009336031042,612.0093384,0.146274209,612.0093384,0.07857368141,
611.0131226,0.009159761481,611.0131226,0.1469311714,611.0131226,0.07878833264,
610.0165405,0.009037979878,610.0165405,0.147478953,610.0165405,0.07913963497,
608.9828491,0.009512399323,608.9828491,0.1481097341,608.9828491,0.07926756144,
607.9857178,0.009134328924,607.9857178,0.1489878744,607.9857178,0.07992974669,
606.9883423,0.008703844622,606.9883423,0.1494032443,606.9883423,0.08029791713,
605.9907837,0.008374530822,605.9907837,0.1502532661,605.9907837,0.0808307007,
604.9929199,0.008478441276,604.9929199,0.1506017447,604.9929199,0.08101801574,
603.994751,0.0086900061,603.994751,0.1512088031,603.994751,0.0814364776,
602.9963379,0.008528068662,602.9963379,0.1521087736,602.9963379,0.08173000067,
601.9976807,0.008201051503,601.9976807,0.1527299583,601.9976807,0.08241272718,
600.9987793,0.007917591371,600.9987793,0.1533246785,600.9987793,0.08294015378,
599.9995117,0.007729327306,599.9995117,0.1540772468,599.9995117,0.08319518715,
599.000061,0.007218474988,599.000061,0.1549269259,599.000061,0.0838849023,
598.0003052,0.006816625595,598.0003052,0.1554453224,598.0003052,0.08406455815,
597.0003662,0.00705711171,597.0003662,0.1560215354,597.0003662,0.0846984908,
596.000061,0.006868720055,596.000061,0.1570037305,596.000061,0.08536007255,
594.9996338,0.006408133544,594.9996338,0.1579185128,594.9996338,0.08588197082,
593.9987793,0.006423502229,593.9987793,0.1584803462,593.9987793,0.08612879366,
592.9978027,0.005980472546,592.9978027,0.1594203413,592.9978027,0.08680792153,
591.9963989,0.005590595771,591.9963989,0.1602387279,591.9963989,0.08718162775,
590.994873,0.005471042823,590.994873,0.1607904583,590.994873,0.08758836985,
589.993103,0.005273092538,589.993103,0.1617498547,589.993103,0.08802662045,
588.9909668,0.004995307419,588.9909668,0.1627961248,588.9909668,0.08879624307,
587.9886475,0.00458865473,587.9886475,0.1637494415,587.9886475,0.08953306824,
586.986084,0.004320823587,586.986084,0.1643233299,586.986084,0.08999226242,
585.9832764,0.004043881316,585.9832764,0.165308103,585.9832764,0.09049578756,
585.0172729,0.003989512101,585.0172729,0.1658342332,585.0172729,0.09078366309,
584.013916,0.003359185299,584.013916,0.1672550142,584.013916,0.09156854451,
583.0103149,0.003247808199,583.0103149,0.1678883433,583.0103149,0.09210014343,
582.0065308,0.002934305929,582.0065308,0.1687258482,582.0065308,0.09268137813,
581.0023193,0.002526036697,581.0023193,0.1700000763,581.0023193,0.09315820038,
579.9979858,0.002323203953,579.9979858,0.1708794981,579.9979858,0.09378965944,
578.9932861,0.001902014599,578.9932861,0.1717597693,578.9932861,0.09440610558,
577.9884644,0.001635184861,577.9884644,0.1729466766,577.9884644,0.09501073509,
576.9832764,0.001360572875,576.9832764,0.1737116575,576.9832764,0.09551650286,
576.0151367,0.0008988879854,576.0151367,0.1749054044,576.0151367,0.09620515257,
575.0095215,0.0006959061138,575.0095215,0.1762870997,575.0095215,0.09696722031,
574.0036621,0.0004953255993,574.0036621,0.1771759689,574.0036621,0.097500287,
572.9974365,6.213076995E-005,572.9974365,0.1782849431,572.9974365,0.09824229777,
571.9910889,-0.0001143491536,571.9910889,0.1795427948,571.9910889,0.09889595211,
570.9844971,-0.0003451816156,570.9844971,0.1807844937,570.9844971,0.0997287333,
570.0148926,-0.0008745305822,570.0148926,0.1822548062,570.0148926,0.100724861,
569.0077515,-0.001262227539,569.0077515,0.1836771518,569.0077515,0.1014237553,
568.0003052,-0.001764835091,568.0003052,0.1848012209,568.0003052,0.1021701172,
566.9927368,-0.002085071523,566.9927368,0.1861567199,566.9927368,0.1029072627,
565.9848633,-0.001961602597,565.9848633,0.1873505414,565.9848633,0.1033772528,
565.0140381,-0.00253062835,565.0140381,0.1887334585,565.0140381,0.1044901162,
564.0056152,-0.002959428588,564.0056152,0.1902052164,564.0056152,0.1052146256,
562.9970703,-0.003473173827,562.9970703,0.1916575581,562.9970703,0.1060022265,
561.9882202,-0.003860457567,561.9882202,0.1934536994,561.9882202,0.1069482267,
561.0164795,-0.003926339559,561.0164795,0.1944486648,561.0164795,0.1075631529,
560.0071411,-0.004447859246,560.0071411,0.1961497366,560.0071411,0.1085779369,
558.9974976,-0.004797666334,558.9974976,0.1974685788,558.9974976,0.1094311774,
557.9876709,-0.004738062155,557.9876709,0.1987103522,557.9876709,0.1098502129,
557.0150146,-0.005056421272,557.0150146,0.2003406733,557.0150146,0.1106282771,
556.0046997,-0.005320187658,556.0046997,0.2018552274,556.0046997,0.1116357893,
554.9941406,-0.005585838109,554.9941406,0.203736335,554.9941406,0.1126389131,
553.9832764,-0.005854594987,553.9832764,0.2052829713,553.9832764,0.1134898216,
553.0097046,-0.005682834424,553.0097046,0.2064829767,553.0097046,0.1143321618,
551.9984741,-0.00564415101,551.9984741,0.2080343366,551.9984741,0.1151523814,
550.9869385,-0.005952450912,550.9869385,0.2098101825,550.9869385,0.1161286607,
550.0126953,-0.006059321109,550.0126953,0.2114822119,550.0126953,0.1171592027,
549.0006104,-0.006132884882,549.0006104,0.2133055627,549.0006104,0.1179976314,
547.9884644,-0.006167237181,547.9884644,0.2148561478,547.9884644,0.1188158244,
547.0134277,-0.005711959675,547.0134277,0.2164918929,547.0134277,0.119680129,
546.0007935,-0.00544454623,546.0007935,0.2183318138,546.0007935,0.1208836585,
544.9877319,-0.005575104617,544.9877319,0.2203782201,544.9877319,0.1219125018,
544.012146,-0.00525339134,544.012146,0.2221134156,544.012146,0.1229701787,
542.9986572,-0.004780205898,542.9986572,0.2241119146,542.9986572,0.1239471585,
541.9850464,-0.004177717026,541.9850464,0.2258444726,541.9850464,0.1249391139,
541.008728,-0.003265477484,541.008728,0.2275807858,541.008728,0.1259948611,
539.9946289,-0.003286287421,539.9946289,0.2298366874,539.9946289,0.1272153407,
539.0178833,-0.003093871986,539.0178833,0.2318343967,539.0178833,0.1282047778,
538.0031738,-0.002865987597,538.0031738,0.2338088453,538.0031738,0.1292892843,
536.9884033,-0.001869338681,536.9884033,0.235743165,536.9884033,0.1306286454,
536.0109253,-0.00140514446,536.0109253,0.2377548367,536.0109253,0.1315842718,
534.9956665,-0.001031985506,534.9956665,0.2399296612,534.9956665,0.1327241659,
534.0177612,-0.0001861837372,534.0177612,0.2420651168,534.0177612,0.1338265687,
533.0020142,0.0006629794952,533.0020142,0.2441504449,533.0020142,0.1349804103,
531.9859619,0.000891054282,531.9859619,0.2465390116,531.9859619,0.1362752318,
531.0074463,0.001401213347,531.0074463,0.2487603128,531.0074463,0.1375503987,
529.9910278,0.001568567939,529.9910278,0.2509689629,529.9910278,0.1386186481,
529.0119629,0.003168531461,529.0119629,0.2529321909,529.0119629,0.1398677975,
527.9951172,0.003972975537,527.9951172,0.254868269,527.9951172,0.1410034746,
527.015625,0.003922977485,527.015625,0.2575382292,527.015625,0.1423413306,
525.998291,0.004663246218,525.998291,0.2598485351,525.998291,0.1435934305,
525.0183716,0.005103414413,525.0183716,0.2624034584,525.0183716,0.145022586,
524.0006104,0.005578953773,524.0006104,0.2645884454,524.0006104,0.1461662203,
522.9825439,0.005898176227,522.9825439,0.2669329345,522.9825439,0.1475005448,
522.0020142,0.006264430005,522.0020142,0.2696259022,522.0020142,0.1489080191,
520.9835815,0.006670578849,520.9835815,0.2723492086,520.9835815,0.1504095495,
520.0025635,0.006858411245,520.0025635,0.2750792801,520.0025635,0.151831463,
518.9836426,0.007661347277,518.9836426,0.2775394619,518.9836426,0.1532531381,
518.0022583,0.008363209665,518.0022583,0.2799098492,518.0022583,0.1543453634,
516.9828491,0.008490952663,516.9828491,0.283017695,516.9828491,0.1562069952,
516.0010376,0.008600884117,516.0010376,0.2859583199,516.0010376,0.1578022093,
514.9812012,0.008976401761,514.9812012,0.2888770103,514.9812012,0.1593412012,
513.9989624,0.009103902616,513.9989624,0.2915913761,513.9989624,0.16088669,
513.0165405,0.009416230954,513.0165405,0.2940807343,513.0165405,0.1621836424,
511.9959717,0.009640348144,511.9959717,0.2970096767,511.9959717,0.1638794839,
511.0130615,0.009776595049,511.0130615,0.2999495268,511.0130615,0.1654172093,
509.992157,0.01009868085,509.992157,0.3029080331,509.992157,0.1669285446,
509.0088501,0.01019481476,509.0088501,0.3058866858,509.0088501,0.1686619073,
507.9875183,0.01017562859,507.9875183,0.3091431856,507.9875183,0.1704351753,
507.0037842,0.01022582222,507.0037842,0.3119134307,507.0037842,0.1719319075,
505.9819336,0.01011126582,505.9819336,0.3151339293,505.9819336,0.1737401932,
504.9977722,0.01025553234,504.9977722,0.3181975484,504.9977722,0.1751659662,
504.0134277,0.01030682214,504.0134277,0.3212177157,504.0134277,0.176877901,
502.9909363,0.0102665592,502.9909363,0.3246931136,502.9909363,0.1788522452,
502.0061646,0.01007867791,502.0061646,0.3276230097,502.0061646,0.1804087162,
500.9833374,0.00995451957,500.9833374,0.3310691416,500.9833374,0.1821832061,
499.9981079,0.009601099417,499.9981079,0.3344991207,499.9981079,0.1842526048,
499.0126953,0.009658901952,499.0126953,0.3376718462,499.0126953,0.1858941615,
497.9891052,0.009475754574,497.9891052,0.341555208,497.9891052,0.1879736632,
497.0032959,0.009666948579,497.0032959,0.3450531363,497.0032959,0.1899525523,
496.0173645,0.009354624897,496.0173645,0.348721087,496.0173645,0.1917734891,
494.9931335,0.009009409696,494.9931335,0.3522425294,494.9931335,0.1937850863,
494.0067749,0.008721460588,494.0067749,0.3562200367,494.0067749,0.1960555315,
492.9821777,0.008139670826,492.9821777,0.3608246446,492.9821777,0.1984569281,
491.9953308,0.009358856827,491.9953308,0.3649452329,491.9953308,0.2005987316,
491.0082703,0.008725474589,491.0082703,0.3693630397,491.0082703,0.203103289,
489.9830627,0.007958086208,489.9830627,0.3738781214,489.9830627,0.2055017948,
488.995636,0.008041142486,488.995636,0.3780787289,488.995636,0.2078015804,
488.0079956,0.008782025427,488.0079956,0.3825252652,488.0079956,0.2102142274,
486.9820862,0.008552541956,486.9820862,0.3875252008,486.9820862,0.2128374875,
485.9940491,0.007712621242,485.9940491,0.3927264512,485.9940491,0.2156244069,
485.0058289,0.008709416725,485.0058289,0.3969526589,485.0058289,0.2179443985,
484.0173645,0.0102191167,484.0173645,0.4010843039,484.0173645,0.220171839,
482.9907532,0.009886375628,482.9907532,0.4070363939,482.9907532,0.2235701084,
482.0018921,0.01002953481,482.0018921,0.4120934606,482.0018921,0.2260320187,
481.0127869,0.01018548664,481.0127869,0.4178090692,481.0127869,0.229274869,
479.9855957,0.01063386444,479.9855957,0.4234146476,479.9855957,0.2322956622,
478.9960938,0.01122238021,478.9960938,0.428573817,478.9960938,0.2351003587,
478.0064697,0.01189692784,478.0064697,0.4337841272,478.0064697,0.2379764616,
477.0166321,0.01263368316,477.0166321,0.4395220876,477.0166321,0.2409790754,
475.9884644,0.01325731538,475.9884644,0.4454288781,475.9884644,0.2441136092,
474.9982605,0.01368315052,474.9982605,0.4517183006,474.9982605,0.2476104945,
474.007843,0.01448519249,474.007843,0.4572066367,474.007843,0.2505520582,
473.0172119,0.01496900525,473.0172119,0.4630521238,473.0172119,0.2536952794,
471.9883728,0.01565085165,471.9883728,0.4691657424,471.9883728,0.2571993768,
470.9973145,0.01611646265,470.9973145,0.4754845798,470.9973145,0.2605484128,
470.0061035,0.01664795354,470.0061035,0.4821140766,470.0061035,0.2641664445,
469.01474,0.01705381274,469.01474,0.4887388051,469.01474,0.2677125037,
467.9850464,0.01766657457,467.9850464,0.4950445294,467.9850464,0.2711657584,
466.9932556,0.01820601523,466.9932556,0.5017638803,466.9932556,0.2748165429,
466.0013123,0.0185601078,466.0013123,0.5087801814,466.0013123,0.2785463631,
465.0091553,0.01899104007,465.0091553,0.5161072016,465.0091553,0.2824514806,
464.0167847,0.01941308938,464.0167847,0.523712337,464.0167847,0.2866831124,
462.986084,0.01956806146,462.986084,0.5312590003,462.986084,0.2906328142,
461.9933472,0.01991670765,461.9933472,0.5387430787,461.9933472,0.2946924269,
461.0003967,0.02053184249,461.0003967,0.5458000898,461.0003967,0.2984430492,
460.0073242,0.02106295526,460.0073242,0.552505374,460.0073242,0.302241087,
459.0140381,0.02110684104,459.0140381,0.5607410669,459.0140381,0.3066850305,
457.9823303,0.02124083415,457.9823303,0.5683801174,457.9823303,0.3107911646,
456.988678,0.02134498768,456.988678,0.5759636164,456.988678,0.3150031269,
455.9948425,0.0214345865,455.9948425,0.5829833746,455.9948425,0.3188988268,
455.0007629,0.0215739049,455.0007629,0.5908076167,455.0007629,0.3227872849,
454.0065308,0.02179690264,454.0065308,0.5991084576,454.0065308,0.3272028267,
453.0121155,0.02214764245,453.0121155,0.607129693,453.0121155,0.3315081298,
452.0175476,0.02214699052,452.0175476,0.6152026057,452.0175476,0.3359009027,
450.9844971,0.02225443907,450.9844971,0.6227975488,450.9844971,0.3399107158,
449.989563,0.02233806811,449.989563,0.6306841969,449.989563,0.344161123,
448.9943542,0.022318637,448.9943542,0.6391865611,448.9943542,0.3487642109,
447.9990234,0.02273466066,447.9990234,0.647043407,447.9990234,0.3530880809,
447.00354,0.02268831804,447.00354,0.6556286812,447.00354,0.3577403426,
446.007782,0.02305105329,446.007782,0.6633497477,446.007782,0.3614754379,
445.0119019,0.02290768549,445.0119019,0.6711614132,445.0119019,0.3660196662,
444.0158997,0.02297072671,444.0158997,0.679300189,444.0158997,0.370403856,
442.9812927,0.02274865285,442.9812927,0.6880294681,442.9812927,0.3751805425,
441.9848328,0.02333050221,441.9848328,0.6971357465,441.9848328,0.379986465,
440.9882507,0.02334325761,440.9882507,0.7047340274,440.9882507,0.3838849068,
439.9914551,0.02323024161,439.9914551,0.7125303149,439.9914551,0.3882702589,
438.9945068,0.0232761763,438.9945068,0.7212732434,438.9945068,0.3929799497,
437.997345,0.02327068709,437.997345,0.7297777534,437.997345,0.3976466656,
437.0000305,0.02291639149,437.0000305,0.7390956283,437.0000305,0.4026887417,
436.0025024,0.02269137278,436.0025024,0.7472956181,436.0025024,0.4072603285,
435.0048218,0.02267634496,435.0048218,0.7552176118,435.0048218,0.411367029,
434.006958,0.02277893387,434.006958,0.7630571723,434.006958,0.4155400991,
433.0089111,0.0226969365,433.0089111,0.7709860206,433.0089111,0.419952631,
432.0107117,0.02232730389,432.0107117,0.7794321775,432.0107117,0.4245232642,
431.0123291,0.02220305428,431.0123291,0.787212491,431.0123291,0.4288732409,
430.0137634,0.0221560616,430.0137634,0.7945816517,430.0137634,0.4323478937,
429.0150452,0.02203000896,429.0150452,0.8024690151,429.0150452,0.4369643927,
428.0161438,0.02190146036,428.0161438,0.8095437884,428.0161438,0.4408964813,
427.0170288,0.02202973515,427.0170288,0.8165308237,427.0170288,0.4446250498,
426.0177612,0.02192757092,426.0177612,0.8239845634,426.0177612,0.4484517276,
425.0183716,0.02199615911,425.0183716,0.830703795,425.0183716,0.452052176,
424.0187378,0.02176149376,424.0187378,0.8367579579,424.0187378,0.4553644061,
423.0189514,0.02145256475,423.0189514,0.8431283832,423.0189514,0.4588066638,
422.0190125,0.02169628814,422.0190125,0.8494995236,422.0190125,0.4620916247,
421.0189514,0.02162543312,421.0189514,0.8557137847,421.0189514,0.465498358,
420.0185852,0.02118516713,420.0185852,0.8606395125,420.0185852,0.4683040082,
419.018158,0.02103227936,419.018158,0.8661216497,419.018158,0.470946461,
418.0174866,0.02085432224,418.0174866,0.8709468246,418.0174866,0.4738090336,
417.0166931,0.02072055452,417.0166931,0.8756922483,417.0166931,0.4765131474,
416.0157166,0.02043708414,416.0157166,0.8804005384,416.0157166,0.4790356159,
415.0145569,0.02042837441,415.0145569,0.8851794004,415.0145569,0.481390655,
414.0132751,0.02014232613,414.0132751,0.8894118667,414.0132751,0.483779788,
413.0117493,0.01988107339,413.0117493,0.8934622407,413.0117493,0.4859520495,
412.0101318,0.01953613758,412.0101318,0.8970849514,412.0101318,0.4881483018,
411.0083008,0.01972853392,411.0083008,0.9010435343,411.0083008,0.4901505113,
410.0063171,0.01946977712,410.0063171,0.9046355486,410.0063171,0.4919512868,
409.0042114,0.01920992695,409.0042114,0.9075632095,409.0042114,0.4936126769,
408.0018921,0.01880499721,408.0018921,0.9101629853,408.0018921,0.495282948,
406.9993896,0.01873590983,406.9993896,0.9128065109,406.9993896,0.4963797033,
405.9967346,0.01875285618,405.9967346,0.9153285027,405.9967346,0.4976797402,
404.993927,0.0190251153,404.993927,0.917988956,404.993927,0.4990473092,
403.9909058,0.01906830817,403.9909058,0.9194404483,403.9909058,0.4998683035,
402.9878235,0.01902865805,402.9878235,0.9213023782,402.9878235,0.5008768439,
401.9844971,0.01895594038,401.9844971,0.9227954149,401.9844971,0.5017779469,
400.9810181,0.01913815178,400.9810181,0.9237221479,400.9810181,0.5023913383,
400.0159607,0.01930815354,400.0159607,0.9254388809,400.0159607,0.5033499599,
399.012207,0.01959389634,399.012207,0.9267777205,399.012207,0.5038141012,
398.0082397,0.0197587125,398.0082397,0.9276207089,398.0082397,0.5044341087,
397.0041199,0.0198928602,397.0041199,0.9284176826,397.0041199,0.5047305226,
395.9998474,0.0197740458,395.9998474,0.9296235442,395.9998474,0.5053672194,
394.9954224,0.02097147517,394.9954224,0.9301125407,394.9954224,0.5057673454,
393.9908142,0.02059092931,393.9908142,0.9306524396,393.9908142,0.5061827302,
392.986084,0.02113602683,392.986084,0.9315366149,392.986084,0.5065008402,
391.9811401,0.02206911705,391.9811401,0.9319947958,391.9811401,0.5069164634,
391.0147705,0.02214091457,391.0147705,0.9325894117,391.0147705,0.5072090626,
390.009491,0.02233526111,390.009491,0.9330625534,390.009491,0.5074689984,
389.0041199,0.02260061353,389.0041199,0.9333637357,389.0041199,0.5077002645,
387.9985657,0.02359340154,387.9985657,0.9337761998,387.9985657,0.5077763796,
386.9928894,0.02380923554,386.9928894,0.9341008067,386.9928894,0.5078626275,
385.9869995,0.02426383272,385.9869995,0.9343677163,385.9869995,0.5083723068,
384.9810181,0.02498160861,384.9810181,0.9340179563,384.9810181,0.508246243,
384.0135193,0.0259182509,384.0135193,0.9346625805,384.0135193,0.5084250569,
383.0071716,0.02643200569,383.0071716,0.9342458248,383.0071716,0.508241713,
382.0007324,0.02698917314,382.0007324,0.9344030619,382.0007324,0.5083824992,
380.9940796,0.02775956504,380.9940796,0.9340897202,380.9940796,0.5083620548,
379.9872742,0.02797626518,379.9872742,0.933637321,379.9872742,0.5084571242,
379.0190735,0.02877761796,379.0190735,0.933155477,379.0190735,0.5081579089,
378.0119934,0.03039774112,378.0119934,0.9337812662,378.0119934,0.5079642534,
377.0047302,0.0309231896,377.0047302,0.9320193529,377.0047302,0.5076426864,
375.997345,0.03155852482,375.997345,0.9311730266,375.997345,0.507250607,
374.9897461,0.03207122162,374.9897461,0.9308655262,374.9897461,0.5069999695,
373.9820862,0.03262180835,373.9820862,0.9297518134,373.9820862,0.5065995455,
373.01297,0.03327226266,373.01297,0.9288830757,373.01297,0.5060354471,
372.0049744,0.03426784649,372.0049744,0.9279082417,372.0049744,0.5055955052,
370.9968262,0.03479643166,370.9968262,0.9270923734,370.9968262,0.5052520633,
369.9884949,0.03511741385,369.9884949,0.9263904095,369.9884949,0.5047290325,
369.0188293,0.03539628536,369.0188293,0.9243931174,369.0188293,0.5041111708,
368.0102234,0.03648810834,368.0102234,0.9236546755,368.0102234,0.503536284,
367.0014648,0.03679729998,367.0014648,0.9222769141,367.0014648,0.5033277273,
365.9925842,0.03711147979,365.9925842,0.9210234284,365.9925842,0.5026442409,
364.9835205,0.03747078031,364.9835205,0.9202929139,364.9835205,0.5023272038,
364.0131836,0.0371157378,364.0131836,0.9191154242,364.0131836,0.5015901923,
363.0038147,0.03847726062,363.0038147,0.9185299873,363.0038147,0.5011617541,
361.9943542,0.03955772519,361.9943542,0.9184789658,361.9943542,0.5009791255,
360.9847107,0.03971120715,360.9847107,0.9182061553,360.9847107,0.5008753538,
360.0137329,0.03963131085,360.0137329,0.9174075127,360.0137329,0.5009240508,
359.0037842,0.03896180913,359.0037842,0.9165649414,359.0037842,0.5007472038,
357.9937744,0.04112805426,357.9937744,0.9169790745,357.9937744,0.5007215142,
356.9835205,0.04050090909,356.9835205,0.9170150757,356.9835205,0.5010656118,
356.0120239,0.04092895612,356.0120239,0.9168785214,356.0120239,0.501219511,
355.0015564,0.04093669355,355.0015564,0.9178645015,355.0015564,0.5018265247,
353.9909058,0.04163679481,353.9909058,0.9184342027,353.9909058,0.5024799109,
353.0189819,0.0416421257,353.0189819,0.9199697971,353.0189819,0.503035605,
352.0080872,0.04164198041,352.0080872,0.9217530489,352.0080872,0.5040355921,
350.9970093,0.04204973578,350.9970093,0.9236141443,350.9970093,0.5049313307,
349.9858093,0.04241799936,349.9858093,0.9261208773,349.9858093,0.506413877,
349.0133667,0.042392198,349.0133667,0.9282711148,349.0133667,0.5083965063,
348.0018616,0.04227970541,348.0018616,0.9317781329,348.0018616,0.5100200772,
346.9902039,0.04268785939,346.9902039,0.9358177781,346.9902039,0.5120081306,
346.017334,0.04304728657,346.017334,0.9392613173,346.017334,0.5142540932,
345.0054321,0.04389807209,345.0054321,0.9432808757,345.0054321,0.5164528489,
343.9934082,0.04396841675,343.9934082,0.9481611848,343.9934082,0.5191990137,
342.9812012,0.04398663342,342.9812012,0.9537311792,342.9812012,0.5222795606,
342.007843,0.04436677694,342.007843,0.9589236975,342.007843,0.5254036188,
340.9953613,0.04435361922,340.9953613,0.9651309848,340.9953613,0.5282946825,
339.9827881,0.04449535534,339.9827881,0.9718284011,339.9827881,0.532151103,
339.0089722,0.04506970942,339.0089722,0.978779912,339.0089722,0.5355202556,
337.9961243,0.04521314427,337.9961243,0.9859937429,337.9961243,0.5404366255,
336.9831238,0.04532723129,336.9831238,0.9944078922,336.9831238,0.5441932678,
336.0089417,0.04569132626,336.0089417,1.001485586,336.0089417,0.5483849049,
334.9956665,0.04583499581,334.9956665,1.009256482,334.9956665,0.5530667305,
333.9822083,0.04662336037,333.9822083,1.01864624,333.9822083,0.5578300357,
333.0076599,0.0472914502,333.0076599,1.027715445,333.0076599,0.5627253056,
331.993988,0.04757354036,331.993988,1.036809564,331.993988,0.5678549409,
331.0191956,0.04797548428,331.0191956,1.045312524,331.0191956,0.5727924705,
330.0052185,0.04860124737,330.0052185,1.05522573,330.0052185,0.5780649781,
328.9911804,0.04947970435,328.9911804,1.065794945,328.9911804,0.5836601853,
328.0159607,0.04975933209,328.0159607,1.076592803,328.0159607,0.5897328854,
327.0016174,0.05132880062,327.0016174,1.087254047,327.0016174,0.5953125358,
325.9871521,0.05168113858,325.9871521,1.097298384,325.9871521,0.6008296013,
325.0115662,0.05331613868,325.0115662,1.107540965,325.0115662,0.6058077216,
323.9968262,0.05504540354,323.9968262,1.117697358,323.9968262,0.6119131446,
322.9819641,0.05556172132,322.9819641,1.128570318,322.9819641,0.6183193326,
322.0060425,0.05687077343,322.0060425,1.137796402,322.0060425,0.6232246161,
320.9908752,0.05768645182,320.9908752,1.147184849,320.9908752,0.6285905838,
320.014679,0.05988565832,320.014679,1.155580163,320.014679,0.6332365274,
318.9992981,0.06139145792,318.9992981,1.164855242,318.9992981,0.6381789446,
317.9837952,0.06284164637,317.9837952,1.174506545,317.9837952,0.6432893276,
317.0072327,0.0641226843,317.0072327,1.182126164,317.0072327,0.6475511789,
315.9914856,0.06571653485,315.9914856,1.189825535,315.9914856,0.651913166,
315.0146484,0.06893446296,315.0146484,1.197817922,315.0146484,0.6559113264,
313.9986572,0.07000096142,313.9986572,1.205181479,313.9986572,0.660022378,
312.9824829,0.07173629105,312.9824829,1.21307075,312.9824829,0.6642848849,
312.0053406,0.07421987504,312.0053406,1.220653296,312.0053406,0.6681394577,
310.9889832,0.07624705881,310.9889832,1.227066994,310.9889832,0.6718441248,
310.0115356,0.07796714455,310.0115356,1.233195305,310.0115356,0.6755267978,
308.994873,0.08089836687,308.994873,1.240425587,308.994873,0.6788954139,
308.0172424,0.08240355551,308.0172424,1.246768236,308.0172424,0.6828102469,
307.0003662,0.08499734104,307.0003662,1.254179597,307.0003662,0.6868985295,
305.9833679,0.08695495129,305.9833679,1.262072325,305.9833679,0.6907093525,
305.0053406,0.08905041963,305.0053406,1.268841386,305.0053406,0.6949346066,
303.9880676,0.09131461382,303.9880676,1.278348804,303.9880676,0.6997749209,
303.0098267,0.09410203248,303.0098267,1.288259149,303.0098267,0.7049036026,
301.9923706,0.09710924327,301.9923706,1.299321175,301.9923706,0.7104468346,
301.013855,0.09933835268,301.013855,1.31027329,301.013855,0.7158666253,
299.9961548,0.1023133621,299.9961548,1.323851943,299.9961548,0.7230671644,
299.0174561,0.1049435288,299.0174561,1.338529587,299.0174561,0.7307905555,
297.9994812,0.1088947877,297.9994812,1.357637525,297.9994812,0.7403947115,
296.9813843,0.1127925366,296.9813843,1.3803581,296.9813843,0.7504364252,
296.0023193,0.1154799089,296.0023193,1.408183932,296.0023193,0.765176475,
294.9840088,0.1199134961,294.9840088,1.446663737,294.9840088,0.7855858207,
294.0047302,0.1238205582,294.0047302,1.499063134,294.0047302,0.8150579333,
292.986145,0.1275856346,292.986145,1.58761096,292.986145,0.8594145775,
292.0066528,0.1311175227,292.0066528,1.679989576,292.0066528,0.9088049531,
290.987854,0.1357392967,290.987854,1.776313424,290.987854,0.9589915276,
290.0081482,0.1401559561,290.0081482,1.868709207,290.0081482,1.012981534,
288.9891052,0.1454366446,288.9891052,1.969422579,288.9891052,1.061733246,
288.0091553,0.1508373469,288.0091553,2.072731495,288.0091553,1.11952579,
286.9898987,0.1572676897,286.9898987,2.169927597,286.9898987,1.168967843,
286.0097351,0.1629411727,286.0097351,2.256337404,286.0097351,1.218010783,
284.9902649,0.1695028841,284.9902649,2.342452049,284.9902649,1.261116147,
284.0098572,0.1752011925,284.0098572,2.397341013,284.0098572,1.289632082,
282.9901428,0.1836126745,282.9901428,2.436165571,282.9901428,1.303159237,
282.0095215,0.1901080012,282.0095215,2.444395304,282.0095215,1.306840777,
280.989624,0.1968301386,280.989624,2.456351042,280.989624,1.309742451,
280.0087891,0.2037228942,280.0087891,2.467495441,280.0087891,1.315889955,
278.9886169,0.2109642029,278.9886169,2.470935345,278.9886169,1.320481658,
278.0075684,0.2188107967,278.0075684,2.472757339,278.0075684,1.315864205,
276.9872131,0.2262072116,276.9872131,2.455918789,276.9872131,1.30190587,
276.0059509,0.2332165837,276.0059509,2.423879862,276.0059509,1.281600714,
274.985321,0.2403297275,274.985321,2.372678518,274.985321,1.25090611,
274.0039063,0.2474211454,274.0039063,2.325971365,274.0039063,1.218290329,
272.9830627,0.2539951503,272.9830627,2.269338608,272.9830627,1.182506084,
272.0014038,0.2617281377,272.0014038,2.215910912,272.0014038,1.151695967,
271.0196228,0.2659071982,271.0196228,2.164795399,271.0196228,1.121939182,
269.9985046,0.2708070874,269.9985046,2.10733676,269.9985046,1.089455366,
269.01651,0.2759525478,269.01651,2.062710047,269.01651,1.060872436,
267.9951172,0.2811903059,267.9951172,1.998829842,267.9951172,1.023757219,
267.0129395,0.287507385,267.0129395,1.943723321,267.0129395,0.9966792464,
265.991394,0.2929097116,265.991394,1.895841122,265.991394,0.970834136,
265.0090027,0.2990354598,265.0090027,1.849158883,265.0090027,0.9434300661,
263.9871826,0.3064335585,263.9871826,1.793125033,263.9871826,0.9155292511,
263.0046082,0.314789027,263.0046082,1.750789404,263.0046082,0.8919496536,
261.9826355,0.322524339,261.9826355,1.713533044,261.9826355,0.8756251335,
260.9998169,0.3325662017,260.9998169,1.689329386,260.9998169,0.8634827137,
260.0169373,0.3451696336,260.0169373,1.672607183,260.0169373,0.8557280898,
258.9945984,0.3593040109,258.9945984,1.648493648,258.9945984,0.8464941382,
258.0115051,0.3764131963,258.0115051,1.618400574,258.0115051,0.8344120979,
256.9890137,0.3943352699,256.9890137,1.590135813,256.9890137,0.8242170215,
256.0057373,0.4144718349,256.0057373,1.574210763,256.0057373,0.8197252154,
254.983017,0.4403093457,254.983017,1.564709663,254.983017,0.8217285872,
253.999527,0.469212532,253.999527,1.56730938,253.999527,0.8268850446,
253.0159454,0.5013613701,253.0159454,1.56930244,253.0159454,0.836093843,
251.9929504,0.5326054096,251.9929504,1.574584603,251.9929504,0.8424414992,
251.0091705,0.5725719333,251.0091705,1.578979254,251.0091705,0.8509787321,
249.9859314,0.6204148531,249.9859314,1.601050019,249.9859314,0.8721005917,
249.0019836,0.6728419065,249.0019836,1.626995802,249.0019836,0.8972480297,
248.0179138,0.7287834883,248.0179138,1.667238951,248.0179138,0.92537117,
246.9943848,0.7783141136,246.9943848,1.710166097,246.9943848,0.9478253126,
246.0101471,0.8388265371,246.0101471,1.761839509,246.0101471,0.9854699969,
244.9864349,0.9221355915,244.9864349,1.861516953,244.9864349,1.054672718,
244.0019836,1.015245914,244.0019836,1.998794675,244.0019836,1.133072376,
243.0174866,1.096428156,243.0174866,2.135757685,243.0174866,1.225701571,
241.9934692,1.177010059,241.9934692,2.284974337,241.9934692,1.310200214,
241.0087433,1.268566132,241.0087433,2.4325068,241.0087433,1.460122466,
239.9845581,1.383962393,239.9845581,2.503513336,239.9845581,1.602003932,
238.9996796,1.508112192,238.9996796,2.630151033,238.9996796,1.792520165,
238.0146637,1.618049145,238.0146637,2.509170055,238.0146637,1.859675646,
236.9901886,1.753128052,236.9901886,2.149096727,236.9901886,1.837670922,
236.0050354,1.873062611,236.0050354,2.308428526,236.0050354,1.866921902,
234.9803619,2.032108307,234.9803619,1.874641895,234.9803619,1.798200727,
233.9950104,2.172616005,233.9950104,1.699769378,233.9950104,1.596267343,
233.0095978,2.331101179,233.0095978,1.570602894,233.0095978,1.33481729,
231.9846344,2.503380537,231.9846344,1.316027999,231.9846344,1.229177833,
230.9989929,2.668390989,230.9989929,1.144829154,230.9989929,1.15743947,
230.0133057,2.899693012,230.0133057,1.127059579,230.0133057,1.183236003,

Baseline 100%T,
Baseline 100%T
Collection Time: 7/8/2026 3:43:54 PM
Operator Name  :
Scan Version 5.1.0.1016
Parameter List :
Instrument  Cary 60
Instrument Version  2.00
Start (nm)  800.0
Stop (nm)  230.0
X Mode  Nanometers
Y Mode  Abs
UV-Vis Scan Rate (nm/min)  600.000
UV-Vis Data Interval (nm)  1.00
UV-Vis Ave. Time (sec)  0.1000
Beam Mode  Dual Beam
Baseline Correction  On
Baseline Type  Baseline correction
Baseline File Name  C:\Users\Booker Lab\Documents\ZD\UV scan.MSW
Baseline Std Ref File Name
Cycle Mode  Off
Method Log     :
Method Name    : C:\Users\Booker Lab\Documents\ZD\UV scan.MSW
Date/Time stamp: 6/17/2026 12:27:55 PM
Method Modifications:
UVVIS SAT Changed: 6/17/2026 12:09:53 PM, Old:0.0125, New:0.1000
Common SAT Changed: 6/17/2026 12:09:53 PM, Old:0.0125, New:0.1000
X Stop nm Changed: 6/17/2026 12:10:21 PM, Old:  200.0, New:  230.0
Common Interval nm Changed: 6/17/2026 12:10:21 PM, Old:     5.00, New:     1.00
Baseline Correction Changed: 6/17/2026 12:10:21 PM, Old:0, New:1
Storage Changed: 6/17/2026 12:10:21 PM, Old:1, New:0
Saved as C:\Users\Booker Lab\Desktop\ZD\20260617 TigE scan.BSWSaved as C:\Users\Booker Lab\Desktop\ZD\UV scan.MSW
Opened C:\Users\Booker Lab\Documents\ZD\UV scan.MSW
Baseline file Changed: 7/8/2026 3:38:16 PM, Old:C:\Users\Booker Lab\Desktop\ZD\UV scan.MSW, New:C:\Users\Booker Lab\Documents\ZD\UV scan.MSW
End Method Modifications
<Current Wavelength> , 232.0

TigE_100x,
TigE_100x
Collection Time: 7/8/2026 3:47:53 PM
Operator Name  :
Scan Version 5.1.0.1016
Parameter List :
Instrument  Cary 60
Instrument Version  2.00
Start (nm)  800.0
Stop (nm)  230.0
X Mode  Nanometers
Y Mode  Abs
UV-Vis Scan Rate (nm/min)  600.000
UV-Vis Data Interval (nm)  1.00
UV-Vis Ave. Time (sec)  0.1000
Beam Mode  Dual Beam
Baseline Correction  On
Baseline Type  Baseline correction
Baseline File Name
Baseline Std Ref File Name
Cycle Mode  Off
Method Log     :
Method Name    : C:\Users\Booker Lab\Documents\ZD\UV scan.MSW
Date/Time stamp: 6/17/2026 12:27:55 PM
Method Modifications:
UVVIS SAT Changed: 6/17/2026 12:09:53 PM, Old:0.0125, New:0.1000
Common SAT Changed: 6/17/2026 12:09:53 PM, Old:0.0125, New:0.1000
X Stop nm Changed: 6/17/2026 12:10:21 PM, Old:  200.0, New:  230.0
Common Interval nm Changed: 6/17/2026 12:10:21 PM, Old:     5.00, New:     1.00
Baseline Correction Changed: 6/17/2026 12:10:21 PM, Old:0, New:1
Storage Changed: 6/17/2026 12:10:21 PM, Old:1, New:0
Saved as C:\Users\Booker Lab\Desktop\ZD\20260617 TigE scan.BSWSaved as C:\Users\Booker Lab\Desktop\ZD\UV scan.MSW
Opened C:\Users\Booker Lab\Documents\ZD\UV scan.MSW
Baseline file Changed: 7/8/2026 3:38:16 PM, Old:C:\Users\Booker Lab\Desktop\ZD\UV scan.MSW, New:C:\Users\Booker Lab\Documents\ZD\UV scan.MSW
End Method Modifications
<Current Wavelength> , 233.0

TigE_200x,
TigE_200x
Collection Time: 7/8/2026 3:50:06 PM
Operator Name  :
Scan Version 5.1.0.1016
Parameter List :
Instrument  Cary 60
Instrument Version  2.00
Start (nm)  800.0
Stop (nm)  230.0
X Mode  Nanometers
Y Mode  Abs
UV-Vis Scan Rate (nm/min)  600.000
UV-Vis Data Interval (nm)  1.00
UV-Vis Ave. Time (sec)  0.1000
Beam Mode  Dual Beam
Baseline Correction  On
Baseline Type  Baseline correction
Baseline File Name
Baseline Std Ref File Name
Cycle Mode  Off
Method Log     :
Method Name    : C:\Users\Booker Lab\Documents\ZD\UV scan.MSW
Date/Time stamp: 6/17/2026 12:27:55 PM
Method Modifications:
UVVIS SAT Changed: 6/17/2026 12:09:53 PM, Old:0.0125, New:0.1000
Common SAT Changed: 6/17/2026 12:09:53 PM, Old:0.0125, New:0.1000
X Stop nm Changed: 6/17/2026 12:10:21 PM, Old:  200.0, New:  230.0
Common Interval nm Changed: 6/17/2026 12:10:21 PM, Old:     5.00, New:     1.00
Baseline Correction Changed: 6/17/2026 12:10:21 PM, Old:0, New:1
Storage Changed: 6/17/2026 12:10:21 PM, Old:1, New:0
Saved as C:\Users\Booker Lab\Desktop\ZD\20260617 TigE scan.BSWSaved as C:\Users\Booker Lab\Desktop\ZD\UV scan.MSW
Opened C:\Users\Booker Lab\Documents\ZD\UV scan.MSW
Baseline file Changed: 7/8/2026 3:38:16 PM, Old:C:\Users\Booker Lab\Desktop\ZD\UV scan.MSW, New:C:\Users\Booker Lab\Documents\ZD\UV scan.MSW
End Method Modifications
<Current Wavelength> , 230.0

