Baseline 100%T,,TigE_200x,,TigE_100x,,
Wavelength (nm),Abs,Wavelength (nm),Abs,Wavelength (nm),Abs,
799.9908447,0.004120809492,799.9908447,0.01243129652,799.9908447,0.02630179189,
798.9859009,0.003828351852,798.9859009,0.01298229955,798.9859009,0.02666965127,
798.0151978,0.004047252238,798.0151978,0.01298283227,798.0151978,0.02660114504,
797.0095825,0.004065045621,797.0095825,0.01317835227,797.0095825,0.02652142383,
796.003479,0.003981152549,796.003479,0.01317458972,796.003479,0.02696432732,
794.9969482,0.004168112297,794.9969482,0.01362422202,794.9969482,0.02738366835,
793.9899292,0.004182983655,793.9899292,0.01361866575,793.9899292,0.02735747769,
792.982666,0.004478138871,792.982666,0.01331982389,792.982666,0.02746429294,
792.0097046,0.003918980714,792.0097046,0.01383074652,792.0097046,0.02794600651,
791.0016479,0.004115008283,791.0016479,0.01437073853,791.0016479,0.02784384787,
789.993103,0.004105548374,789.993103,0.0142011065,789.993103,0.02830545418,
788.9842529,0.004135026131,788.9842529,0.01374296844,788.9842529,0.02822906524,
788.0097046,0.00446315296,788.0097046,0.01433057804,788.0097046,0.02858622931,
787.000061,0.004259596579,787.000061,0.01447708346,787.000061,0.02859853394,
785.9899292,0.00480194483,785.9899292,0.01424903888,785.9899292,0.02855167165,
785.0142822,0.004726178478,785.0142822,0.01420541294,785.0142822,0.02899784222,
784.003418,0.004695770796,784.003418,0.01446549501,784.003418,0.02940164693,
782.9922485,0.004510493018,782.9922485,0.01478384715,782.9922485,0.02933774889,
782.0154419,0.004061570391,782.0154419,0.01549021527,782.0154419,0.0300387498,
781.0032959,0.004361375701,781.0032959,0.01543029025,781.0032959,0.03009800613,
779.9909668,0.004484572913,779.9909668,0.01534714922,779.9909668,0.03055215627,
779.0130615,0.004338314757,779.0130615,0.01568383351,779.0130615,0.03058495745,
777.9998779,0.00423910236,777.9998779,0.01589136757,777.9998779,0.03113541193,
776.9862671,0.00421123812,776.9862671,0.01588683017,776.9862671,0.03079904243,
776.0071411,0.004589570686,776.0071411,0.01579184271,776.0071411,0.03074166179,
774.9927979,0.004191086162,774.9927979,0.0160599146,774.9927979,0.03131145611,
774.0130005,0.004294757731,774.0130005,0.01588307135,774.0130005,0.03131894022,
772.9978638,0.004041608423,772.9978638,0.01648565754,772.9978638,0.03145634383,
772.017334,0.004248774145,772.017334,0.01664244011,772.017334,0.03177383915,
771.0014038,0.003923343029,771.0014038,0.01657264866,771.0014038,0.03227017447,
769.9851685,0.003802785883,769.9851685,0.01707922854,769.9851685,0.03240556642,
769.003479,0.003837413853,769.003479,0.01655428112,769.003479,0.03240882978,
767.9863892,0.003290112363,767.9863892,0.01703459024,767.9863892,0.03299670666,
767.0040283,0.00358395651,767.0040283,0.01683579385,767.0040283,0.03279136494,
765.986145,0.003369098529,765.986145,0.01710650325,765.986145,0.03292546794,
765.0031128,0.002547726035,765.0031128,0.01739888266,765.0031128,0.03362529352,
763.9844971,0.002571135061,763.9844971,0.01747567952,763.9844971,0.03361939266,
763.0006104,0.003069429658,763.0006104,0.01711627841,763.0006104,0.03332673386,
762.0164185,0.002811365528,762.0164185,0.01740322076,762.0164185,0.03388025984,
760.9967041,0.002453868277,760.9967041,0.01765085571,760.9967041,0.03415556252,
760.0117188,0.002512055216,760.0117188,0.01799804717,760.0117188,0.03429767862,
758.991272,0.002381919883,758.991272,0.01749228127,758.991272,0.03419838101,
758.0056152,0.001882671262,758.0056152,0.01798973791,758.0056152,0.03476751596,
756.984375,0.00166441733,756.984375,0.0183161106,756.984375,0.03471566737,
755.9979248,0.00142006774,755.9979248,0.01835269853,755.9979248,0.03510543332,
755.0111694,0.00103701232,755.0111694,0.01841832139,755.0111694,0.03549796343,
753.9888306,0.0009470864316,753.9888306,0.01839739084,753.9888306,0.03561750427,
753.0013428,0.0006444690516,753.0013428,0.01863975823,753.0013428,0.03557445854,
752.0134888,0.0004638394166,752.0134888,0.01842874661,752.0134888,0.03593794629,
750.9899902,0.0001049802886,750.9899902,0.0187101271,750.9899902,0.03635535017,
750.0014648,-0.0003173495352,750.0014648,0.01874204539,750.0014648,0.03645190224,
749.0125732,-0.0005388185382,749.0125732,0.01904575154,749.0125732,0.03654667363,
747.9879761,-0.001150039141,747.9879761,0.01935592294,747.9879761,0.03698780388,
746.9983521,-0.001303419704,746.9983521,0.01934455521,746.9983521,0.03681009263,
746.0083618,-0.001886091894,746.0083618,0.0194770582,746.0083618,0.03712086752,
744.982666,-0.002118406352,744.982666,0.01926691271,744.982666,0.03725129366,
743.9919434,-0.002931249328,743.9919434,0.0199822709,743.9919434,0.03775892779,
743.0008545,-0.003344396129,743.0008545,0.0200102441,743.0008545,0.03815282136,
742.0095215,-0.00381765957,742.0095215,0.02006372809,742.0095215,0.03815988824,
740.9822998,-0.004084281623,740.9822998,0.01985589787,740.9822998,0.03815293312,
739.9902344,-0.004504070617,739.9902344,0.01983029209,739.9902344,0.03790590167,
738.9978027,-0.005228787661,738.9978027,0.02022503503,738.9978027,0.03849400207,
738.0049438,-0.005804483779,738.0049438,0.02041575685,738.0049438,0.03895487264,
737.0117798,-0.006315335631,737.0117798,0.02043220028,737.0117798,0.03901507333,
735.9827881,-0.006833181251,735.9827881,0.02052853256,735.9827881,0.03914063051,
734.9889526,-0.00764056202,734.9889526,0.0205877535,734.9889526,0.03956716508,
733.994751,-0.008439894766,733.994751,0.02078827471,733.994751,0.03963618726,
733.0001221,-0.009008107707,733.0001221,0.02076872438,733.0001221,0.03975715861,
732.005249,-0.009797691368,732.005249,0.02091396786,732.005249,0.03980561346,
731.0100098,-0.01049443241,731.0100098,0.02093165182,731.0100098,0.04016115889,
730.0144043,-0.01111512538,730.0144043,0.02115002461,730.0144043,0.04051250592,
728.9829102,-0.011965313,728.9829102,0.02139776573,728.9829102,0.04052796215,
727.9866333,-0.01270977501,727.9866333,0.02168864198,727.9866333,0.04119814932,
726.9899902,-0.01300671976,726.9899902,0.02160176449,726.9899902,0.04109521583,
725.992981,-0.01347454451,725.992981,0.02171408571,725.992981,0.04134105146,
724.9956665,-0.01370074414,724.9956665,0.02186664194,724.9956665,0.04162195325,
723.9979858,-0.01390982792,723.9979858,0.02173748985,723.9979858,0.04188681766,
723.000061,-0.0139478324,723.000061,0.02190170623,723.000061,0.04197345674,
722.0016479,-0.01385271456,722.0016479,0.02195125818,722.0016479,0.04190138355,
721.0029907,-0.01397445332,721.0029907,0.02215472609,721.0029907,0.04249067232,
720.0039063,-0.01387573127,720.0039063,0.02241626196,720.0039063,0.04266695306,
719.0045166,-0.01342686173,719.0045166,0.02223942615,719.0045166,0.04255613312,
718.0048218,-0.01321714278,718.0048218,0.02238723263,718.0048218,0.04313650727,
717.0047607,-0.01292792987,717.0047607,0.0225257948,717.0047607,0.04315028712,
716.0043945,-0.01234238315,716.0043945,0.02248942666,716.0043945,0.04314385355,
715.0036621,-0.01170716528,715.0036621,0.0224445276,715.0036621,0.04329597577,
714.0026245,-0.01116321422,714.0026245,0.02269810997,714.0026245,0.04350454733,
713.0011597,-0.01044025458,713.0011597,0.02246142924,713.0011597,0.04322757199,
711.9994507,-0.009720392525,711.9994507,0.02276379243,711.9994507,0.04376560822,
710.9974365,-0.008895416744,710.9974365,0.02270765603,710.9974365,0.04387656599,
709.9949951,-0.008023894392,709.9949951,0.02250572853,709.9949951,0.04383461177,
708.9922485,-0.00709332386,708.9922485,0.0225590039,708.9922485,0.04400834814,
707.9891968,-0.006144778337,707.9891968,0.02277372219,707.9891968,0.04419020563,
706.9857788,-0.005264542066,706.9857788,0.02278365195,706.9857788,0.04418825731,
706.0178833,-0.004269799683,706.0178833,0.02264519967,706.0178833,0.04412039742,
705.0137939,-0.003314392408,705.0137939,0.02268973738,705.0137939,0.04406535998,
704.0093994,-0.002358629135,704.0093994,0.02271253802,704.0093994,0.04426177219,
703.0046387,-0.001315343077,703.0046387,0.02231035382,703.0046387,0.0443100445,
701.9995728,-0.0004034783051,701.9995728,0.02243103459,701.9995728,0.04415323585,
700.9942017,0.0004760448937,700.9942017,0.0223551821,700.9942017,0.04427773878,
699.9884644,0.001398798195,699.9884644,0.02215137519,699.9884644,0.04401834682,
698.9824829,0.002454258734,698.9824829,0.02210016549,698.9824829,0.04414375126,
698.0119019,0.003422424663,698.0119019,0.02201380581,698.0119019,0.04408025742,
697.0053101,0.004029589705,697.0053101,0.02183781378,697.0053101,0.04402378947,
695.99823,0.004769490566,695.99823,0.02189740352,695.99823,0.04410340637,
694.9909058,0.005704909563,694.9909058,0.0213175267,694.9909058,0.04397173971,
693.9832153,0.006156269927,693.9832153,0.02155510709,693.9832153,0.04413286224,
693.0111694,0.006942283828,693.0111694,0.02148463018,693.0111694,0.0438243039,
692.0028076,0.007089500781,692.0028076,0.02183354087,692.0028076,0.04408822209,
690.9942017,0.007861917838,690.9942017,0.02134482376,690.9942017,0.0438718386,
689.9851685,0.008389045484,689.9851685,0.02136619575,689.9851685,0.04423778132,
689.0119629,0.009036394767,689.0119629,0.02167724073,689.0119629,0.04392327741,
688.0023193,0.009510653093,688.0023193,0.02122254111,688.0023193,0.04393722489,
686.9923706,0.0100145936,686.9923706,0.02107178606,686.9923706,0.04401184246,
685.9821167,0.0105031291,685.9821167,0.02118391544,685.9821167,0.04409630224,
685.0075684,0.01064662356,685.0075684,0.0214645844,685.0075684,0.04431537539,
683.9967041,0.01112285722,683.9967041,0.02139727585,683.9967041,0.04413469881,
682.9854736,0.01137166657,682.9854736,0.02144568413,682.9854736,0.04449025169,
682.0100098,0.01192108635,682.0100098,0.02155328542,682.0100098,0.04431950301,
680.9981689,0.01231988519,680.9981689,0.02140217088,680.9981689,0.04453972355,
679.9860229,0.01303169783,679.9860229,0.02132361569,679.9860229,0.04433891177,
679.0096436,0.01331921015,679.0096436,0.02113224939,679.0096436,0.04444038123,
677.9968262,0.01338621229,677.9968262,0.02160483785,677.9968262,0.04465891048,
676.9837036,0.01371208299,676.9837036,0.02169411071,676.9837036,0.04465793446,
676.0064087,0.01408851892,676.0064087,0.02142487839,676.0064087,0.04484092817,
674.9926758,0.01426540967,674.9926758,0.02142169699,674.9926758,0.04498732835,
674.0148315,0.01437017694,674.0148315,0.02161261998,674.0148315,0.04526723921,
673.0004272,0.01459898055,673.0004272,0.02175629511,673.0004272,0.04523391277,
671.9857178,0.01473494526,671.9857178,0.02193440497,671.9857178,0.04553712532,
671.006958,0.01513279974,671.006958,0.02159126289,671.006958,0.04535343871,
669.9915771,0.01532113738,669.9915771,0.02167876437,669.9915771,0.04574988037,
669.012207,0.01566826925,669.012207,0.02183639817,669.012207,0.04560368136,
667.9962769,0.01531665958,667.9962769,0.0221789442,667.9962769,0.04622444883,
667.0163574,0.01489369478,667.0163574,0.02228492871,667.0163574,0.0461140126,
665.9997559,0.01484617405,665.9997559,0.02194420621,665.9997559,0.04615961015,
664.9828491,0.01452113781,664.9828491,0.02233387157,664.9828491,0.04636028782,
664.0020142,0.01442599483,664.0020142,0.02220152877,664.0020142,0.04659079388,
662.9844971,0.01417754311,662.9844971,0.02256475575,662.9844971,0.04689616337,
662.0030518,0.01425751857,662.0030518,0.02244409174,662.0030518,0.04683260992,
660.9849243,0.01399659831,660.9849243,0.02269099094,660.9849243,0.04738454521,
660.0029297,0.01417585835,660.0029297,0.02274592593,660.0029297,0.04714446887,
658.9841919,0.01452777628,658.9841919,0.02268638276,658.9841919,0.04745958373,
658.0015259,0.01417155284,658.0015259,0.02286716551,658.0015259,0.04757894203,
656.9822388,0.01428491063,656.9822388,0.02274085209,656.9822388,0.04761149362,
655.9989624,0.0140739996,655.9989624,0.02306131832,655.9989624,0.04793709517,
655.0155029,0.01394714322,655.0155029,0.02316842042,655.0155029,0.04817095771,
653.9952393,0.01405282319,653.9952393,0.02317803167,653.9952393,0.0482028611,
653.0111084,0.01407530904,653.0111084,0.02305730432,653.0111084,0.04841432348,
651.9902954,0.01395740826,651.9902954,0.02353917994,651.9902954,0.04864238948,
651.0056152,0.01394198369,651.0056152,0.0235404931,651.0056152,0.04888372868,
649.9841309,0.0139787402,649.9841309,0.0235217195,649.9841309,0.04927532002,
648.9989014,0.01375953387,648.9989014,0.02368849702,648.9989014,0.04957625642,
648.0133667,0.01388563961,648.0133667,0.02403272688,648.0133667,0.04962561652,
646.9910278,0.01368381828,646.9910278,0.02434355207,646.9910278,0.04992314056,
646.0048218,0.0137548577,646.0048218,0.02439132892,646.0048218,0.05044302344,
644.9819336,0.01348526683,644.9819336,0.02478870563,644.9819336,0.05071780458,
643.9952393,0.01373364311,643.9952393,0.02464309335,643.9952393,0.0507690087,
643.0081787,0.01340455376,643.0081787,0.02516598254,643.0081787,0.05127353594,
641.984436,0.01331926323,641.984436,0.02529135719,641.984436,0.05165577307,
640.9968872,0.01315588504,640.9968872,0.02557417192,640.9968872,0.05192498863,
640.0089722,0.0130224945,640.0089722,0.02574069798,640.0089722,0.05238427967,
638.984314,0.01297728531,638.984314,0.02601572685,638.984314,0.05243203044,
637.9958496,0.01280091796,637.9958496,0.02614428848,637.9958496,0.05296358466,
637.0072021,0.01249166112,637.0072021,0.02652436867,637.0072021,0.05349075422,
636.0182495,0.01232901961,636.0182495,0.02686917409,636.0182495,0.05360205472,
634.9923096,0.01213457435,634.9923096,0.02705176175,634.9923096,0.05403902382,
634.0028076,0.01193752885,634.0028076,0.02758994699,634.0028076,0.0547121428,
633.0130005,0.01192813646,633.0130005,0.02752791531,633.0130005,0.0550824292,
631.986145,0.01167672221,631.986145,0.02808381245,631.986145,0.05544058979,
630.9957886,0.01125853416,630.9957886,0.02841653675,630.9957886,0.05591094494,
630.005188,0.01129070669,630.005188,0.02863608114,630.005188,0.05632640049,
629.0141602,0.01102819014,629.0141602,0.02889308333,629.0141602,0.05669898167,
627.9863281,0.01090832613,627.9863281,0.02924462035,627.9863281,0.05689877644,
626.994812,0.01068742666,626.994812,0.02952849865,626.994812,0.057641875,
626.0029907,0.01085579768,626.0029907,0.02950633503,626.0029907,0.05765366927,
625.0109253,0.01050792914,625.0109253,0.03001755849,625.0109253,0.05813225731,
623.9818115,0.01036243886,623.9818115,0.03023821674,623.9818115,0.05844078958,
622.9892578,0.01012862101,622.9892578,0.03068476357,622.9892578,0.05884640291,
621.9963379,0.00994485151,621.9963379,0.03081871569,621.9963379,0.0591869764,
621.0031738,0.009859973565,621.0031738,0.03092385828,621.0031738,0.05940919742,
620.0097656,0.009798490442,620.0097656,0.03097336553,620.0097656,0.0596328415,
619.0160522,0.009729180485,619.0160522,0.03124199249,619.0160522,0.05983196944,
617.9853516,0.009549761191,617.9853516,0.03153277561,617.9853516,0.060386464,
616.9910889,0.009526237845,616.9910889,0.03144036978,616.9910889,0.06025812402,
615.996521,0.009302310646,615.996521,0.03191197291,615.996521,0.06081209332,
615.00177,0.00922670681,615.00177,0.03188606724,615.00177,0.06096359342,
614.0066528,0.009151116945,614.0066528,0.03202030808,614.0066528,0.06126559153,
613.0113525,0.009087328799,613.0113525,0.03221700713,613.0113525,0.06154876575,
612.0157471,0.009014352225,612.0157471,0.03222096339,612.0157471,0.06168712676,
610.9829712,0.008951033466,610.9829712,0.03237427399,610.9829712,0.06183433905,
609.9868164,0.008867802098,609.9868164,0.03253918886,609.9868164,0.06214739382,
608.9904175,0.009005049244,608.9904175,0.03272671625,608.9904175,0.06219808385,
607.9937134,0.00897330977,607.9937134,0.03260573372,607.9937134,0.06243897974,
606.9967651,0.008612898178,606.9967651,0.03287308291,606.9967651,0.06271218508,
605.9995728,0.008585095406,605.9995728,0.0329070352,605.9995728,0.06280786544,
605.0021362,0.008691590279,605.0021362,0.03294174746,605.0021362,0.06298597902,
604.0043335,0.008548159152,604.0043335,0.03336726502,604.0043335,0.06323881447,
603.0063477,0.008668034337,603.0063477,0.0332069844,603.0063477,0.06330122054,
602.0080566,0.008339988068,602.0080566,0.03339860216,602.0080566,0.06359618902,
601.0095215,0.008341359906,601.0095215,0.03327162191,601.0095215,0.06358938664,
600.0106812,0.008111582138,600.0106812,0.03340097889,600.0106812,0.06397403777,
599.0117188,0.007884850726,599.0117188,0.03357411176,599.0117188,0.06408785284,
598.0123291,0.007662822958,598.0123291,0.03370512649,598.0123291,0.06421364099,
597.0127563,0.007749538869,597.0127563,0.03374611214,597.0127563,0.06464739144,
596.0128784,0.00770890573,596.0128784,0.03397503123,596.0128784,0.0647200644,
595.0127563,0.007435746957,595.0127563,0.03403462842,595.0127563,0.06494255364,
594.0123291,0.007340431679,594.0123291,0.03415298462,594.0123291,0.06511580199,
593.0117188,0.007033617701,593.0117188,0.03427627683,593.0117188,0.06551809609,
592.0108643,0.00700752018,592.0108643,0.0343105346,592.0108643,0.0654759258,
591.0097046,0.006723680999,591.0097046,0.03460225835,591.0097046,0.06586313248,
590.0083008,0.006750971079,590.0083008,0.0346166417,590.0083008,0.06585388631,
589.0065308,0.006498435512,589.0065308,0.03472517431,589.0065308,0.06632899493,
588.0046387,0.006266557146,588.0046387,0.03492029756,588.0046387,0.06655043364,
587.0025024,0.006070738193,587.0025024,0.03503479809,587.0025024,0.06674539298,
585.999939,0.006004985888,585.999939,0.03499879688,585.999939,0.06703286618,
584.9973145,0.005772872362,584.9973145,0.03523140773,584.9973145,0.06734558195,
583.9943237,0.005731611047,583.9943237,0.03519895673,583.9943237,0.06739658117,
582.9911499,0.005453322548,582.9911499,0.03546009585,582.9911499,0.06780414283,
581.9876099,0.005137701053,581.9876099,0.03572707251,581.9876099,0.06818901002,
580.9839478,0.004945741035,580.9839478,0.03593161702,580.9839478,0.06849443913,
580.0170898,0.004728246015,580.0170898,0.03595079482,580.0170898,0.06867198646,
579.0129395,0.00455080159,579.0129395,0.03599626943,579.0129395,0.06888182461,
578.0083618,0.004129590467,578.0083618,0.03643726185,578.0083618,0.06960552931,
577.0036621,0.004031157121,577.0036621,0.03641440347,577.0036621,0.06974243373,
575.9987183,0.003650517901,575.9987183,0.03665856272,575.9987183,0.07028435916,
574.9933472,0.003663726849,574.9933472,0.03683257848,574.9933472,0.0703515932,
573.987915,0.003235628828,573.987915,0.03705452755,573.987915,0.07087108493,
572.9821777,0.003018727293,572.9821777,0.03709864989,572.9821777,0.07126450539,
572.0134277,0.002692288486,572.0134277,0.03763433546,572.0134277,0.07180212438,
571.0072021,0.002525229473,571.0072021,0.0376829505,571.0072021,0.07194941491,
570.0006714,0.002149523236,570.0006714,0.03792787716,570.0006714,0.07261861116,
568.9938965,0.001827766071,568.9938965,0.03818235546,568.9938965,0.07289095223,
567.9869995,0.001459648949,567.9869995,0.03841619939,567.9869995,0.07347036153,
567.0170288,0.001059950911,567.0170288,0.03870642185,567.0170288,0.07402978837,
566.0095215,0.001046016347,566.0095215,0.03891183436,566.0095215,0.07435163856,
565.0018311,0.0006062840694,565.0018311,0.03910049424,565.0018311,0.07493330538,
563.9938354,0.0003571143025,563.9938354,0.03919912875,563.9938354,0.07516016811,
562.9855957,-0.000119887256,562.9855957,0.03964713588,562.9855957,0.07577013224,
562.0144653,-0.0004612500197,562.0144653,0.04004453123,562.0144653,0.07649670541,
561.0057373,-0.000636431796,561.0057373,0.04017180577,561.0057373,0.07703565806,
559.9968262,-0.0009222690132,559.9968262,0.04045078903,559.9968262,0.07753074914,
558.9876099,-0.001256394316,558.9876099,0.04071496427,558.9876099,0.07810457796,
558.015564,-0.001455559395,558.015564,0.04094616324,558.015564,0.07849834114,
557.0058594,-0.001725439914,557.0058594,0.04124397412,557.0058594,0.07910059392,
555.9959717,-0.001895731199,555.9959717,0.0415161252,555.9959717,0.07959897816,
554.9857178,-0.002098622266,554.9857178,0.0419254452,554.9857178,0.08028861135,
554.0128174,-0.002198048867,554.0128174,0.04212214798,554.0128174,0.08084947616,
553.0021973,-0.002318412531,553.0021973,0.04265421629,553.0021973,0.08152025938,
551.9912109,-0.002444611629,551.9912109,0.04300861806,551.9912109,0.0821377933,
551.0175781,-0.002532944549,551.0175781,0.04323592037,551.0175781,0.08282063156,
550.0062256,-0.002606078517,550.0062256,0.04364966974,550.0062256,0.08346301317,
548.9946289,-0.002617605962,548.9946289,0.04393115267,548.9946289,0.08419302851,
547.9827271,-0.002565318486,547.9827271,0.04427859932,547.9827271,0.08478904516,
547.0081177,-0.002205260331,547.0081177,0.04455449432,547.0081177,0.08541738987,
545.9957886,-0.002108668908,545.9957886,0.04482614622,545.9957886,0.08609748632,
544.9832764,-0.002069665585,544.9832764,0.04544701055,544.9832764,0.08691238612,
544.0079346,-0.001570041757,544.0079346,0.04558421671,544.0079346,0.08751287311,
542.9949951,-0.001306826365,542.9949951,0.04599770531,542.9949951,0.08830080926,
541.9816284,-0.0007046136307,541.9816284,0.04650953785,541.9816284,0.08916845918,
541.0056763,-0.0001055501489,541.0056763,0.04699165747,541.0056763,0.089830935,
539.9919434,3.287642539E-005,539.9919434,0.04743460938,539.9919434,0.09050019085,
539.015564,0.0002569942444,539.015564,0.04778241366,539.015564,0.09130947292,
538.0014038,0.0005567237968,538.0014038,0.04816477001,538.0014038,0.09228152782,
536.9869385,0.001510974951,536.9869385,0.04856995493,536.9869385,0.0929935053,
536.0098267,0.00209502643,536.0098267,0.04887446016,536.0098267,0.09371111542,
534.9949341,0.002333744196,534.9949341,0.04958368465,534.9949341,0.09487541765,
534.017395,0.003154685488,534.017395,0.04989177734,534.017395,0.09564037621,
533.0020752,0.003987918608,533.0020752,0.05025728047,533.0020752,0.09641635418,
531.9865112,0.004302443936,531.9865112,0.05069476366,531.9865112,0.09730258584,
531.0083008,0.004899322055,531.0083008,0.05122672766,531.0083008,0.09830166399,
529.9922485,0.005394740496,529.9922485,0.05171507969,529.9922485,0.09929770976,
529.0136108,0.006407870911,529.0136108,0.05231816322,529.0136108,0.1000600085,
527.9971313,0.0069790571,527.9971313,0.05270149559,527.9971313,0.1010480151,
527.0180054,0.00726695871,527.0180054,0.05306255445,527.0180054,0.1018294021,
526.0010986,0.007891125046,526.0010986,0.05358899385,526.0010986,0.102833882,
524.9838867,0.008364212699,524.9838867,0.05428684503,524.9838867,0.1039244011,
524.0040894,0.008985492401,524.0040894,0.05459899828,524.0040894,0.1048535854,
522.9865112,0.009292552248,522.9865112,0.0553253442,522.9865112,0.1060808375,
522.0063477,0.009733072482,522.0063477,0.05586978793,522.0063477,0.1069896147,
520.9882202,0.01018540747,520.9882202,0.05637582764,520.9882202,0.1081047803,
520.0076294,0.01051047537,520.0076294,0.05686938763,520.0076294,0.1090478227,
518.9890747,0.01114152744,518.9890747,0.05747772753,518.9890747,0.1101494059,
518.0080566,0.01146306004,518.0080566,0.05830884725,518.0080566,0.1115388647,
516.9890747,0.01192803029,516.9890747,0.05864547566,516.9890747,0.1124948338,
516.0075684,0.01216159388,516.0075684,0.05918009579,516.0075684,0.1134593338,
514.9881592,0.01242975146,514.9881592,0.05978309736,514.9881592,0.1146543846,
514.0062866,0.0126434369,514.0062866,0.06049261615,514.0062866,0.1158032492,
512.9864502,0.01300131623,512.9864502,0.06102159247,512.9864502,0.1170018241,
512.0041504,0.01312738936,512.0041504,0.06163819879,512.0041504,0.1182122901,
510.9837646,0.01324237045,510.9837646,0.06241411343,510.9837646,0.1196178645,
510.0010681,0.01347378548,510.0010681,0.06297592819,510.0010681,0.1204920039,
509.0180664,0.01364465617,509.0180664,0.06343034655,509.0180664,0.1216105074,
507.9971313,0.01378275361,507.9971313,0.06410012394,507.9971313,0.1229149625,
507.0137634,0.01369864494,507.0137634,0.06490118802,507.0137634,0.1244257018,
505.9923401,0.01379028894,505.9923401,0.06553994864,505.9923401,0.1256233156,
505.0085754,0.01387673989,505.0085754,0.06611064821,505.0085754,0.126867786,
503.9866943,0.01385942195,503.9866943,0.0668149814,503.9866943,0.1281279325,
503.002533,0.01388130989,503.002533,0.06742811203,503.002533,0.129459098,
502.018158,0.01362390164,502.018158,0.06837709993,502.018158,0.1309230924,
500.9956055,0.01355039887,500.9956055,0.06904854625,500.9956055,0.1324620992,
500.0108337,0.01340433955,500.0108337,0.06985257566,500.0108337,0.13376908,
498.9878845,0.01350516081,498.9878845,0.07025456429,498.9878845,0.1349590719,
498.002655,0.01328920946,498.002655,0.07106890529,498.002655,0.1365043968,
497.0172119,0.0132397553,497.0172119,0.0719075352,497.0172119,0.1380119473,
495.9936523,0.01306597516,495.9936523,0.07273688912,495.9936523,0.1395425647,
495.007782,0.01276047621,495.007782,0.07356344163,495.007782,0.1410990506,
493.9837952,0.01246270351,493.9837952,0.07444006205,493.9837952,0.1429898441,
492.9974976,0.01229533274,492.9974976,0.0753057003,492.9974976,0.1445717961,
492.0110474,0.01285781432,492.0110474,0.07607997954,492.0110474,0.1459380239,
490.9864197,0.01237051375,490.9864197,0.07717356831,490.9864197,0.14794828,
489.9996033,0.01190733071,489.9996033,0.0781083256,489.9996033,0.1500340253,
489.0124817,0.01213510707,489.0124817,0.0790219605,489.0124817,0.1516619623,
487.9872742,0.01249877457,487.9872742,0.07987109572,487.9872742,0.1533411145,
486.9998169,0.01230678335,486.9998169,0.08098373562,486.9998169,0.1553796381,
486.0120544,0.01196951233,486.0120544,0.08196121454,486.0120544,0.1573340595,
484.9862366,0.01265217829,484.9862366,0.08301065862,484.9862366,0.1593208462,
483.9981384,0.01348353177,483.9981384,0.0840042159,483.9981384,0.1611087024,
483.0098267,0.01354260091,483.0098267,0.0851206705,483.0098267,0.1633387804,
481.9833984,0.0136974426,481.9833984,0.08632365614,481.9833984,0.1654327363,
480.9946899,0.01401247829,480.9946899,0.08733242005,480.9946899,0.1676583439,
480.0058289,0.01445942,480.0058289,0.08852701634,480.0058289,0.1699753106,
479.0167847,0.01520718727,479.0167847,0.08966240287,479.0167847,0.1721617579,
477.9894409,0.01588460058,477.9894409,0.09093561769,477.9894409,0.1745612472,
477,0.01656683907,477,0.09218818694,477,0.1769820005,
476.0103149,0.01713025197,476.0103149,0.09333226085,476.0103149,0.1791238338,
474.9823608,0.01772909984,474.9823608,0.09466394037,474.9823608,0.1818362772,
473.9923401,0.01835056581,473.9923401,0.09605780244,473.9923401,0.1842297763,
473.0020752,0.0190342851,473.0020752,0.09740969539,473.0020752,0.1870478392,
472.0116272,0.01972143725,472.0116272,0.09883052111,472.0116272,0.1895435303,
470.9829102,0.02031888068,470.9829102,0.1001111194,470.9829102,0.1921667606,
469.9920349,0.02074374259,469.9920349,0.1015307829,469.9920349,0.1948526502,
469.0010681,0.0212728586,469.0010681,0.1029000804,469.0010681,0.1975222528,
468.0098267,0.02184840292,468.0098267,0.1044083312,468.0098267,0.200418815,
467.0184631,0.02231923677,467.0184631,0.1059138104,467.0184631,0.2035095394,
465.988739,0.02279843949,465.988739,0.107461296,465.988739,0.2063388675,
464.9969482,0.02332768776,464.9969482,0.1088930592,464.9969482,0.2092210352,
464.0050049,0.02358367294,464.0050049,0.1106432676,464.0050049,0.2124944925,
463.0127869,0.02393897809,463.0127869,0.1121951267,463.0127869,0.2154702097,
461.9822998,0.02435384691,461.9822998,0.1140358597,461.9822998,0.219326973,
460.9896851,0.02496962622,460.9896851,0.115767397,460.9896851,0.2220239341,
459.9969482,0.02518252283,459.9969482,0.1172050089,459.9969482,0.2249007374,
459.0040588,0.02539514191,459.0040588,0.118867591,459.0040588,0.2281115651,
458.0109863,0.02554053999,458.0109863,0.1205990538,458.0109863,0.2315861881,
457.0176392,0.02576080523,457.0176392,0.1224262416,457.0176392,0.2352090329,
455.9859314,0.02596765943,455.9859314,0.1243454888,455.9859314,0.2386184782,
454.9922485,0.02600071952,454.9922485,0.12603724,454.9922485,0.241967082,
453.9984131,0.02630154416,453.9984131,0.1275901496,453.9984131,0.245188728,
453.004364,0.02654046565,453.004364,0.129440397,453.004364,0.2485495359,
452.0101624,0.02678273991,452.0101624,0.1311857998,452.0101624,0.2518826127,
451.015686,0.02672049403,451.015686,0.1332924813,451.015686,0.2560455203,
449.9828796,0.0270468574,449.9828796,0.1352343112,449.9828796,0.2597522438,
448.9881287,0.02721849643,448.9881287,0.1369963139,448.9881287,0.2632063031,
447.9930725,0.02742045,447.9930725,0.1387802213,447.9930725,0.2666422129,
446.9979858,0.02756829374,446.9979858,0.1407687068,446.9979858,0.2702142,
446.002594,0.02737308107,446.002594,0.1427215934,446.002594,0.2737734318,
445.0070801,0.02751575224,445.0070801,0.144525826,445.0070801,0.2776766717,
444.0114136,0.02761433087,444.0114136,0.1463206112,444.0114136,0.2811183929,
443.0155334,0.02769712359,443.0155334,0.1484734863,443.0155334,0.2851161361,
441.9812012,0.0279691685,441.9812012,0.1503941715,441.9812012,0.2888479233,
440.9848938,0.0280360952,440.9848938,0.1522997767,440.9848938,0.2926101983,
439.9884949,0.02804556675,439.9884949,0.154566288,439.9884949,0.2966337502,
438.9918823,0.02790904418,438.9918823,0.1561557651,438.9918823,0.3003589809,
437.9950562,0.02782541141,437.9950562,0.1583111435,437.9950562,0.3042863607,
436.9981384,0.02786785923,436.9981384,0.1599823684,436.9981384,0.3076503873,
436.0010071,0.02746523172,436.0010071,0.1621632576,436.0010071,0.3116260171,
435.0037231,0.02748696133,435.0037231,0.1642820239,435.0037231,0.3157786429,
434.0061646,0.0274776686,434.0061646,0.1661043614,434.0061646,0.31935063,
433.0085144,0.02748778835,433.0085144,0.1678922325,433.0085144,0.3229989111,
432.0107117,0.02732604928,432.0107117,0.1697376221,432.0107117,0.3260447979,
431.0126343,0.02724583633,431.0126343,0.1715079546,431.0126343,0.3297106922,
430.0144958,0.02729531378,430.0144958,0.1734995097,430.0144958,0.3335797489,
429.0161133,0.02721152455,429.0161133,0.1751884818,429.0161133,0.3368416131,
428.0175781,0.0270808544,428.0175781,0.1770035923,428.0175781,0.3402446508,
427.0188293,0.02702396549,427.0188293,0.1784321368,427.0188293,0.3432620764,
425.9815674,0.0270044338,425.9815674,0.1801082194,425.9815674,0.3463789523,
424.9825134,0.02699016407,424.9825134,0.1817706078,424.9825134,0.3493588567,
423.9832153,0.02673519403,423.9832153,0.1834896654,423.9832153,0.3529364765,
422.9837646,0.02668437734,422.9837646,0.1849616915,422.9837646,0.3559361696,
421.9842224,0.02666560374,421.9842224,0.1864793152,421.9842224,0.3585060537,
420.984436,0.02653829195,420.984436,0.1878390461,420.984436,0.3612412214,
419.9844971,0.02620694786,419.9844971,0.1891645342,419.9844971,0.3637386262,
418.984375,0.02605896071,418.984375,0.1906997114,418.984375,0.3664103746,
417.9841309,0.02588824742,417.9841309,0.1919595152,417.9841309,0.3690505326,
416.9837036,0.0258388482,416.9837036,0.1930378079,416.9837036,0.3714107573,
415.9830627,0.02570765652,415.9830627,0.1941372156,415.9830627,0.3736178875,
414.9822693,0.02543466352,414.9822693,0.1955875903,414.9822693,0.3758168519,
413.9813538,0.02541484684,413.9813538,0.1964105666,413.9813538,0.3780609667,
413.0187073,0.02502419241,413.0187073,0.1976658702,413.0187073,0.3803092837,
412.0174255,0.02481822297,412.0174255,0.1986354142,412.0174255,0.3822109103,
411.0159912,0.02486830205,411.0159912,0.1995536387,411.0159912,0.38388592,
410.0144348,0.02464481816,410.0144348,0.200533703,410.0144348,0.3856293857,
409.0126038,0.02454847284,409.0126038,0.2012296468,409.0126038,0.387213558,
408.0106506,0.02423183434,408.0106506,0.2021572143,408.0106506,0.388954699,
407.0085449,0.02400837839,407.0085449,0.2029845119,407.0085449,0.3902465999,
406.0062256,0.0240290612,406.0062256,0.2035415918,406.0062256,0.391410172,
405.0038147,0.02422682568,405.0038147,0.2040717304,405.0038147,0.3924661875,
404.0011902,0.02423719876,404.0011902,0.2046320438,404.0011902,0.393724829,
402.9984436,0.02419619821,402.9984436,0.2051782012,402.9984436,0.3947259486,
401.9954834,0.02412165143,401.9954834,0.2056516856,401.9954834,0.3957536519,
400.9923706,0.02447027713,400.9923706,0.2059862912,400.9923706,0.3961971998,
399.9891052,0.02467945032,399.9891052,0.2062530816,399.9891052,0.3969015777,
398.9856873,0.02486013249,398.9856873,0.20655936,398.9856873,0.3976475596,
397.9820862,0.0250109192,397.9820862,0.206979394,397.9820862,0.3983047605,
397.0169678,0.02503993176,397.0169678,0.2072412521,397.0169678,0.3988176882,
396.0130005,0.02532974444,396.0130005,0.2074157447,396.0130005,0.3993155062,
395.0089417,0.02601036616,395.0089417,0.2076274306,395.0089417,0.3997120857,
394.0047302,0.02604158968,394.0047302,0.2076337785,394.0047302,0.3999800384,
393.0003357,0.02640752308,393.0003357,0.2080956101,393.0003357,0.4004606605,
391.9957886,0.02710689232,391.9957886,0.208194524,391.9957886,0.4006254673,
390.9910889,0.02729407325,390.9910889,0.208200708,390.9910889,0.40098086,
389.9862366,0.02758581005,389.9862366,0.2083326727,389.9862366,0.4012651742,
388.9812012,0.02798126079,388.9812012,0.2083639503,388.9812012,0.4015045166,
388.0147095,0.02861551009,388.0147095,0.2084847242,388.0147095,0.4017045796,
387.0093384,0.02904264815,387.0093384,0.208666414,387.0093384,0.401938796,
386.0038452,0.02946854569,386.0038452,0.2087986469,386.0038452,0.4020031095,
384.9981995,0.03020791337,384.9981995,0.2086229622,384.9981995,0.4020685554,
383.9923706,0.03095752001,383.9923706,0.2085813731,383.9923706,0.4021475613,
382.9864502,0.03143477812,382.9864502,0.2088485956,382.9864502,0.4023307264,
382.0190125,0.03235692531,382.0190125,0.2086364031,382.0190125,0.4021459818,
381.0127258,0.03297386318,381.0127258,0.2085032165,381.0127258,0.4020540416,
380.0063171,0.03346161917,380.0063171,0.2083374858,380.0063171,0.4017875493,
378.9997253,0.03444897383,378.9997253,0.2081882507,378.9997253,0.4015022218,
377.9930115,0.03560176864,377.9930115,0.2080457509,377.9930115,0.4011251032,
376.986084,0.03624092042,376.986084,0.2078903019,376.986084,0.4008990526,
376.0178223,0.03682477027,376.0178223,0.207899496,376.0178223,0.4006610811,
375.0106201,0.03756862506,375.0106201,0.2074660361,375.0106201,0.4003048241,
374.0032654,0.03804879636,374.0032654,0.2071308941,374.0032654,0.3996317089,
372.9957886,0.03883933276,372.9957886,0.2069726884,372.9957886,0.3993566334,
371.9881592,0.03980019316,371.9881592,0.206555739,371.9881592,0.398768127,
371.019104,0.04019889608,371.019104,0.2061299831,371.019104,0.3982321024,
370.0111694,0.04076281562,370.0111694,0.2057976127,370.0111694,0.3975225985,
369.0030823,0.04124226794,369.0030823,0.2054501176,369.0030823,0.3968546689,
367.9948425,0.04207845405,367.9948425,0.2054496109,367.9948425,0.3967328072,
366.9864502,0.0425003767,366.9864502,0.205205977,366.9864502,0.3962038755,
366.0167236,0.0429482311,366.0167236,0.2048500031,366.0167236,0.3954327106,
365.0080261,0.04340907559,365.0080261,0.2043047398,365.0080261,0.3949548006,
363.999176,0.04355725646,363.999176,0.2039922625,363.999176,0.3944207132,
362.9902039,0.04455366358,362.9902039,0.2036418319,362.9902039,0.3937629461,
361.9810486,0.04492494464,361.9810486,0.2032940686,361.9810486,0.3931792378,
361.0106201,0.04543605819,361.0106201,0.2031203657,361.0106201,0.3929261565,
360.0012207,0.04540467635,360.0012207,0.2028972358,360.0012207,0.3926346302,
358.9916382,0.04559781402,358.9916382,0.2028443813,358.9916382,0.3923485279,
357.9819336,0.04651884362,357.9819336,0.2026617229,357.9819336,0.392123431,
357.0109253,0.04640784115,357.0109253,0.2025897801,357.0109253,0.3920446038,
356.0009155,0.04696301371,356.0009155,0.2024304122,356.0009155,0.3918707073,
354.9907837,0.04736061394,354.9907837,0.2024622709,354.9907837,0.3918097019,
354.0193787,0.04754053056,354.0193787,0.2025139183,354.0193787,0.3923066258,
353.0089722,0.04784252122,353.0089722,0.2026384026,353.0089722,0.3926813602,
351.9983826,0.04798456281,351.9983826,0.2028931528,351.9983826,0.3932759166,
350.9877014,0.04829192907,350.9877014,0.2033901215,350.9877014,0.3939899504,
350.0157166,0.04853921011,350.0157166,0.2038027197,350.0157166,0.3948353529,
349.0046997,0.04874373972,349.0046997,0.2042191476,349.0046997,0.39589867,
347.9935913,0.04874898121,347.9935913,0.2047228962,347.9935913,0.3969947994,
346.9823303,0.04910847917,346.9823303,0.2054541409,346.9823303,0.3984706402,
346.0098267,0.04946601018,346.0098267,0.2061632723,346.0098267,0.3999629617,
344.998291,0.04994788393,344.998291,0.207009837,344.998291,0.4015905857,
343.9866028,0.0500190109,343.9866028,0.2081302255,343.9866028,0.4034323394,
343.0136719,0.05021427199,343.0136719,0.2089939117,343.0136719,0.4054094553,
342.001709,0.05054712296,342.001709,0.2100465894,342.001709,0.4076881707,
340.989624,0.05078687519,340.989624,0.2113107443,340.989624,0.4103428721,
340.0163269,0.05099354312,340.0163269,0.2127547562,340.0163269,0.413136512,
339.0039673,0.05132081732,339.0039673,0.2141997069,339.0039673,0.4160521328,
337.9914551,0.05164897814,337.9914551,0.2158612609,337.9914551,0.418707639,
337.0177307,0.05183604732,337.0177307,0.217352733,337.0177307,0.4219764769,
336.0049438,0.05236228928,336.0049438,0.2192402035,336.0049438,0.4258111119,
334.9920654,0.0526034236,334.9920654,0.2211143672,334.9920654,0.4294782281,
334.0179749,0.05324280262,334.0179749,0.2227814496,334.0179749,0.4327931404,
333.0047607,0.05372689292,333.0047607,0.2247105986,333.0047607,0.436555028,
331.9914856,0.05431491509,331.9914856,0.2266154587,331.9914856,0.440615207,
331.0169983,0.05481902882,331.0169983,0.2292119414,331.0169983,0.4451180696,
330.0033875,0.05563633516,330.0033875,0.2313924879,330.0033875,0.4494560659,
328.9896851,0.05619026721,328.9896851,0.2337310165,328.9896851,0.4538954198,
328.0148315,0.05682211742,328.0148315,0.2358780652,328.0148315,0.4586053491,
327.000885,0.05799167976,327.000885,0.2382244468,327.000885,0.4629864395,
325.9867554,0.05889030546,325.9867554,0.2407867759,325.9867554,0.4684290886,
325.0115051,0.06042058766,325.0115051,0.2430610359,325.0115051,0.472833395,
323.9971619,0.06163047254,323.9971619,0.2455847114,323.9971619,0.4772724807,
322.9826355,0.0628554076,322.9826355,0.2479859143,322.9826355,0.4821755588,
322.0070496,0.0640475899,322.0070496,0.2503915727,322.0070496,0.4869553745,
320.9922791,0.06565053016,320.9922791,0.2525834441,320.9922791,0.49189201,
320.0164185,0.06750503182,320.0164185,0.2550007403,320.0164185,0.4959776402,
319.0014038,0.06916964799,319.0014038,0.2569495738,319.0014038,0.5004360676,
317.9862671,0.07076467574,317.9862671,0.2590813339,317.9862671,0.5041935444,
317.0100403,0.0725145638,317.0100403,0.2613764107,317.0100403,0.5087717772,
315.9946594,0.0747473985,315.9946594,0.263574034,315.9946594,0.5131264329,
315.0181885,0.07679663599,315.0181885,0.2651285529,315.0181885,0.516120851,
314.0025024,0.07860150933,314.0025024,0.267270267,314.0025024,0.5206763744,
312.9867554,0.08097933978,312.9867554,0.2690562308,312.9867554,0.5241073966,
312.0099182,0.08324607462,312.0099182,0.2707661092,312.0099182,0.5277253985,
310.993866,0.08563102782,310.993866,0.2727401555,310.993866,0.5319086909,
310.0167847,0.08797878772,310.0167847,0.2744852006,310.0167847,0.5353969932,
309.0005493,0.09044475108,309.0005493,0.2762017846,309.0005493,0.5386798382,
307.9841309,0.09254380316,307.9841309,0.2780009806,307.9841309,0.542440474,
307.0066833,0.09489200264,307.0066833,0.2800603807,307.0066833,0.5463167429,
305.9900513,0.09746383131,305.9900513,0.2823600471,305.9900513,0.5509676933,
305.0124207,0.09973517805,305.0124207,0.2844690979,305.0124207,0.5557414889,
303.9955139,0.1019406542,303.9955139,0.2872166932,303.9955139,0.5606728792,
303.0176086,0.1041072756,303.0176086,0.2898881733,303.0176086,0.5662269592,
302.0005188,0.1065224856,302.0005188,0.2930702865,302.0005188,0.5726472139,
300.9832153,0.1088941842,300.9832153,0.2970250249,300.9832153,0.5805068612,
300.0050049,0.1109605879,300.0050049,0.3009659648,300.0050049,0.5882964134,
298.9874878,0.1129398644,298.9874878,0.3060532808,298.9874878,0.598117888,
298.0090027,0.1149969772,298.0090027,0.3109193742,298.0090027,0.6077619791,
296.991272,0.1168369874,296.991272,0.317984879,296.991272,0.6216232181,
296.0125732,0.1185269952,296.0125732,0.3284486234,296.0125732,0.6415397525,
294.9946289,0.1206102222,294.9946289,0.3401538134,294.9946289,0.6656273603,
294.015686,0.1221528351,294.015686,0.3585083485,294.015686,0.6995375156,
292.997467,0.122858867,292.997467,0.3816422522,292.997467,0.7469549775,
292.0183411,0.1233313307,292.0183411,0.411740303,292.0183411,0.8042729497,
290.9998779,0.1241258532,290.9998779,0.4476712048,290.9998779,0.8704553246,
289.9813538,0.125104785,289.9813538,0.4792419672,289.9813538,0.934109211,
289.0018311,0.1261960864,289.0018311,0.5091769695,289.0018311,0.9892100096,
287.9830627,0.127019152,287.9830627,0.5399906039,287.9830627,1.049964428,
287.0033264,0.1281286031,287.0033264,0.5710644126,287.0033264,1.110191703,
285.9843445,0.1290506423,285.9843445,0.6058458686,285.9843445,1.177174926,
285.0043945,0.1299987733,285.0043945,0.6318192482,285.0043945,1.227304816,
283.9851685,0.1301655918,283.9851685,0.6511880159,283.9851685,1.265201569,
283.0050049,0.131165877,283.0050049,0.6605942249,283.0050049,1.28339684,
281.9855042,0.1319363862,281.9855042,0.66667974,281.9855042,1.29511416,
281.0051575,0.1326666474,281.0051575,0.6733719707,281.0051575,1.30873251,
279.9854736,0.1332992762,279.9854736,0.6812385917,279.9854736,1.32299602,
279.0049133,0.1339091808,279.0049133,0.6873719096,279.0049133,1.335533142,
277.9849854,0.1346243769,277.9849854,0.6892401576,277.9849854,1.338975668,
277.0041504,0.1358606517,277.0041504,0.6847684979,277.0041504,1.331256628,
275.9840393,0.1373457462,275.9840393,0.6746424437,275.9840393,1.312393427,
275.0030518,0.138114512,275.0030518,0.6618446708,275.0030518,1.287206054,
273.9826965,0.1399407834,273.9826965,0.646800518,273.9826965,1.259049535,
273.0014343,0.1410274804,273.0014343,0.6313377619,273.0014343,1.229432583,
271.980896,0.1438722014,271.980896,0.6158280969,271.980896,1.199380398,
270.9994507,0.1452431083,270.9994507,0.5984360576,270.9994507,1.167442441,
270.0179138,0.1474524587,270.0179138,0.5848511457,270.0179138,1.140375376,
268.9970093,0.1506627053,268.9970093,0.5697393417,268.9970093,1.113155007,
268.0152893,0.1547207236,268.0152893,0.5526980162,268.0152893,1.079039574,
266.9941711,0.1609563231,266.9941711,0.5360352397,266.9941711,1.047433019,
266.0122375,0.1686125547,266.0122375,0.5197127461,266.0122375,1.016084194,
264.9909058,0.1774233282,264.9909058,0.5042374134,264.9909058,0.9852499366,
264.0087891,0.1872467399,264.0087891,0.4882442355,264.0087891,0.9557580352,
262.9872131,0.1993906796,262.9872131,0.4744124711,262.9872131,0.9286706448,
262.0048523,0.2146934122,262.0048523,0.4617200792,262.0048523,0.905228734,
260.9831238,0.2320429534,260.9831238,0.4511125088,260.9831238,0.8858210444,
260.0006104,0.2479833961,260.0006104,0.4443174005,260.0006104,0.8732600808,
259.0179443,0.2684858441,259.0179443,0.4369597733,259.0179443,0.8579642177,
257.9958801,0.2956915498,257.9958801,0.4251841009,257.9958801,0.8359434009,
257.0130615,0.323423475,257.0130615,0.4166576564,257.0130615,0.8176391721,
255.9908142,0.3608646095,255.9908142,0.4062547088,255.9908142,0.8006756902,
255.0077667,0.3953467309,255.0077667,0.4022645652,255.0077667,0.7938160896,
253.9852753,0.437030375,253.9852753,0.4014747441,253.9852753,0.7908275723,
253.0020599,0.4818648994,253.0020599,0.3981549442,253.0020599,0.7851285338,
252.0187073,0.5284646153,252.0187073,0.3968197405,252.0187073,0.7845785618,
250.9959564,0.5926106572,250.9959564,0.3959296942,250.9959564,0.7814819813,
250.0124512,0.6516920328,250.0124512,0.3982895017,250.0124512,0.7904697061,
248.9894867,0.7176573873,248.9894867,0.4050561488,248.9894867,0.8024938107,
248.0057526,0.7879441977,248.0057526,0.4110706747,248.0057526,0.8205264211,
246.9826202,0.8599076271,246.9826202,0.4217818081,246.9826202,0.8416019082,
245.9987183,0.9465702176,245.9987183,0.4393353164,245.9987183,0.878146708,
245.0147095,1.039749861,245.0147095,0.4677531421,245.0147095,0.9240611792,
243.9912415,1.14839983,243.9912415,0.5085650682,243.9912415,1.005690455,
243.0070801,1.241791368,243.0070801,0.5492370129,243.0070801,1.090456009,
241.9834137,1.352698088,241.9834137,0.6040275097,241.9834137,1.195842981,
240.9990234,1.473637342,240.9990234,0.6830949187,240.9990234,1.321732521,
240.0145874,1.590935707,240.0145874,0.7637972236,240.0145874,1.45970583,
238.9906616,1.727546096,238.9906616,0.8695749044,238.9906616,1.585311532,
238.006012,1.864754319,238.006012,0.9716151953,238.006012,1.659119844,
236.9818878,2.021244526,236.9818878,1.0825634,236.9818878,1.654625535,
235.9970703,2.152029991,235.9970703,1.195397496,235.9970703,1.644870877,
235.0121155,2.305214643,235.0121155,1.238061547,235.0121155,1.573403597,
233.9877472,2.447834253,233.9877472,1.127245545,233.9877472,1.473638654,
233.0026703,2.620794296,233.0026703,0.9302350283,233.0026703,1.275527,
232.0174561,2.818083048,232.0174561,0.879114747,232.0174561,1.109951615,
230.9927826,2.967339039,230.9927826,0.8419992924,230.9927826,1.049836636,
230.007431,3.147486925,230.007431,0.5394234061,230.007431,0.6946666241,

Baseline 100%T,
Baseline 100%T
Collection Time: 4/2/2026 4:03:55 PM
Operator Name  :
Scan Version 5.1.0.1016
Parameter List :
Instrument  Cary 60
Instrument Version  2.00
Start (nm)  800.0
Stop (nm)  230.0
X Mode  Nanometers
Y Mode  Abs
UV-Vis Scan Rate (nm/min)  600.000
UV-Vis Data Interval (nm)  1.00
UV-Vis Ave. Time (sec)  0.1000
Beam Mode  Dual Beam
Baseline Correction  On
Baseline Type  Baseline correction
Baseline File Name
Baseline Std Ref File Name
Cycle Mode  Off
Method Log     :
Method Name    :
Date/Time stamp: 4/2/2026 3:57:28 PM
Method Modifications:
UVVIS SAT Changed: 4/2/2026 3:58:10 PM, Old:0.0125, New:0.1000
Common SAT Changed: 4/2/2026 3:58:10 PM, Old:0.0125, New:0.1000
X Stop nm Changed: 4/2/2026 3:58:30 PM, Old:  200.0, New:  230.0
Common Interval nm Changed: 4/2/2026 3:58:30 PM, Old:     5.00, New:     1.00
Baseline Correction Changed: 4/2/2026 3:58:30 PM, Old:0, New:1
Storage Changed: 4/2/2026 3:58:30 PM, Old:1, New:0
End Method Modifications
<Current Wavelength> , 235.0

TigE_200x,
TigE_200x
Collection Time: 4/2/2026 4:05:44 PM
Operator Name  :
Scan Version 5.1.0.1016
Parameter List :
Instrument  Cary 60
Instrument Version  2.00
Start (nm)  800.0
Stop (nm)  230.0
X Mode  Nanometers
Y Mode  Abs
UV-Vis Scan Rate (nm/min)  600.000
UV-Vis Data Interval (nm)  1.00
UV-Vis Ave. Time (sec)  0.1000
Beam Mode  Dual Beam
Baseline Correction  On
Baseline Type  Baseline correction
Baseline File Name
Baseline Std Ref File Name
Cycle Mode  Off
Method Log     :
Method Name    :
Date/Time stamp: 4/2/2026 3:57:28 PM
Method Modifications:
UVVIS SAT Changed: 4/2/2026 3:58:10 PM, Old:0.0125, New:0.1000
Common SAT Changed: 4/2/2026 3:58:10 PM, Old:0.0125, New:0.1000
X Stop nm Changed: 4/2/2026 3:58:30 PM, Old:  200.0, New:  230.0
Common Interval nm Changed: 4/2/2026 3:58:30 PM, Old:     5.00, New:     1.00
Baseline Correction Changed: 4/2/2026 3:58:30 PM, Old:0, New:1
Storage Changed: 4/2/2026 3:58:30 PM, Old:1, New:0
End Method Modifications
<Current Wavelength> , 234.0

TigE_100x,
TigE_100x
Collection Time: 4/2/2026 4:07:51 PM
Operator Name  :
Scan Version 5.1.0.1016
Parameter List :
Instrument  Cary 60
Instrument Version  2.00
Start (nm)  800.0
Stop (nm)  230.0
X Mode  Nanometers
Y Mode  Abs
UV-Vis Scan Rate (nm/min)  600.000
UV-Vis Data Interval (nm)  1.00
UV-Vis Ave. Time (sec)  0.1000
Beam Mode  Dual Beam
Baseline Correction  On
Baseline Type  Baseline correction
Baseline File Name
Baseline Std Ref File Name
Cycle Mode  Off
Method Log     :
Method Name    :
Date/Time stamp: 4/2/2026 3:57:28 PM
Method Modifications:
UVVIS SAT Changed: 4/2/2026 3:58:10 PM, Old:0.0125, New:0.1000
Common SAT Changed: 4/2/2026 3:58:10 PM, Old:0.0125, New:0.1000
X Stop nm Changed: 4/2/2026 3:58:30 PM, Old:  200.0, New:  230.0
Common Interval nm Changed: 4/2/2026 3:58:30 PM, Old:     5.00, New:     1.00
Baseline Correction Changed: 4/2/2026 3:58:30 PM, Old:0, New:1
Storage Changed: 4/2/2026 3:58:30 PM, Old:1, New:0
End Method Modifications
<Current Wavelength> , 230.0

