Baseline 100%T,,SAM synthesis rotovap 200x,,
Wavelength (nm),Abs,Wavelength (nm),Abs,
799.9925537,-0.01531713177,799.9925537,-0.001434506616,
798.9872437,-0.01455770526,798.9872437,-0.0009158628527,
798.0161133,-0.01590452343,798.0161133,-0.0005162216839,
797.0098877,-0.01487590373,797.0098877,-0.0008641452296,
796.003418,-0.0152642522,796.003418,-0.0002820654481,
794.996521,-0.01527489908,794.996521,-0.0007865314255,
793.9890747,-0.01501591131,793.9890747,-0.000976975658,
793.0160522,-0.01469286066,793.0160522,-0.0008350029238,
792.0079346,-0.01420044247,792.0079346,-0.001404112438,
790.9993896,-0.01460811775,790.9993896,-0.0002004146954,
789.9904175,-0.01412312128,789.9904175,-0.0016566962,
789.0158081,-0.01459014602,789.0158081,-0.001995719736,
788.0061035,-0.01451915316,788.0061035,-0.0002428460139,
786.9960327,-0.01416651905,786.9960327,-0.002133037662,
785.9854126,-0.01392963249,785.9854126,-0.002265419578,
785.0093384,-0.01290692296,785.0093384,-0.001725697774,
783.9980469,-0.01392386667,783.9980469,-0.0005527277244,
782.9863892,-0.01446832903,782.9863892,-0.0001388301462,
782.0091553,-0.01414256543,782.0091553,-0.0004776440037,
780.996582,-0.01401781663,780.996582,-0.0009278484504,
779.9836426,-0.01379800122,779.9836426,-0.0005931082997,
779.0054321,-0.01340889093,779.0054321,-0.0004827120283,
777.9917603,-0.01336059812,777.9917603,-0.001136975246,
777.0126343,-0.01453847997,777.0126343,-0.0006689474685,
775.99823,-0.01343730185,775.99823,-0.001947377692,
774.9832764,-0.01359393168,774.9832764,-0.00150462694,
774.0031128,-0.01330426615,774.0031128,-0.001209931681,
772.9874878,-0.01404102426,772.9874878,-0.0001118129876,
772.0065918,-0.0142850643,772.0065918,-0.000744773366,
770.9902344,-0.01393339317,770.9902344,-0.001484660082,
770.0084839,-0.0142654255,770.0084839,-0.0003067956422,
768.991333,-0.0148945637,768.991333,-0.0001573064219,
768.0089111,-0.01357958093,768.0089111,-0.001235280186,
766.9910278,-0.01519481931,766.9910278,-0.0005669466336,
766.0078125,-0.01429999247,766.0078125,-0.001389817684,
764.9891968,-0.01527659781,764.9891968,-0.0004598019295,
764.0053101,-0.01477183215,764.0053101,-0.001095715677,
762.9858398,-0.01454994548,762.9858398,-0.001164083602,
762.0012207,-0.01499555539,762.0012207,-0.001299703261,
761.0161743,-0.01525275595,761.0161743,-8.650228847E-005,
759.9956055,-0.01552264206,759.9956055,-0.0005202550674,
759.0098877,-0.01475736964,759.0098877,-0.0008626467898,
757.9885864,-0.01552179269,757.9885864,-0.001058790484,
757.0020752,-0.0156837143,757.0020752,-0.000639430189,
756.0152588,-0.01553238276,756.0152588,-0.001790409093,
754.9928589,-0.01633014902,754.9928589,-0.0008063237183,
754.005249,-0.01603756472,754.005249,-0.001279830234,
753.017334,-0.01600817405,753.017334,-0.00149843574,
751.9938354,-0.01634131745,751.9938354,-0.0007076632464,
751.005249,-0.0171298366,751.005249,-0.001694962964,
750.0162354,-0.01831244491,750.0162354,0.0001889568957,
748.9915771,-0.01775678061,748.9915771,-0.0007979004877,
748.0018921,-0.01757266186,748.0018921,-0.001627142774,
747.0117798,-0.01799978502,747.0117798,-0.0008636802086,
745.9860229,-0.01830311306,745.9860229,-0.001506381086,
744.9952393,-0.01836540177,744.9952393,-0.0009056334966,
744.0040894,-0.01912469417,744.0040894,-0.000823479786,
743.0126343,-0.019376738,743.0126343,-0.001720180153,
741.9854126,-0.01959399693,741.9854126,-0.001619663904,
740.9931641,-0.0200646203,740.9931641,-0.001080171322,
740.0006714,-0.02086699009,740.0006714,-0.0008296289598,
739.0078125,-0.02172791585,739.0078125,-0.0006291943137,
738.0145874,-0.02169817127,738.0145874,-0.001384760137,
736.9854736,-0.0221042335,736.9854736,-0.001723531983,
735.9915161,-0.02323737182,735.9915161,-0.001047996338,
734.9972534,-0.02312325872,734.9972534,-0.001904545585,
734.0025635,-0.02429251932,734.0025635,-0.0004618706298,
733.0076294,-0.02467400953,733.0076294,-0.001238739118,
732.0122681,-0.02549633011,732.0122681,-0.001559415134,
731.0166016,-0.02661019377,731.0166016,-0.0006657942431,
729.9849854,-0.02674656734,729.9849854,-0.001869132393,
728.9886475,-0.0282593295,728.9886475,-0.0008860006928,
727.9919434,-0.02885588817,727.9919434,-0.0006828007754,
726.994812,-0.02904075943,726.994812,-0.001316581853,
725.9974365,-0.02973053232,725.9974365,-0.001046653488,
724.9996948,-0.02969988063,724.9996948,-0.001159281703,
724.0015869,-0.0304460004,724.0015869,-0.0005184969632,
723.0031738,-0.03044788353,723.0031738,-0.0009443281451,
722.0043945,-0.03053586371,722.0043945,-0.0008708621608,
721.005249,-0.03041033074,721.005249,-0.001221083105,
720.0057983,-0.03016089275,720.0057983,-0.001145495218,
719.0060425,-0.03053576872,719.0060425,-0.0007452901918,
718.0058594,-0.02988893539,718.0058594,-0.0008833140018,
717.0054321,-0.02973894402,717.0054321,-0.001090190024,
716.0045776,-0.02965853922,716.0045776,-0.0009056851268,
715.003418,-0.02846326679,715.003418,-0.001670621103,
714.0019531,-0.02842306904,714.0019531,-0.001450038282,
713.0001221,-0.02753854543,713.0001221,-0.00105068204,
711.9979858,-0.02730077319,711.9979858,-0.0006878664135,
710.9954834,-0.02613686584,710.9954834,-0.001500447979,
709.9926758,-0.02550677769,709.9926758,-0.00140731188,
708.9894409,-0.02533441223,708.9894409,-0.0009726366261,
707.9859619,-0.02442379855,707.9859619,-0.0006266611163,
706.9821167,-0.02339394204,706.9821167,-0.0006809398765,
706.013855,-0.02293457463,706.013855,-0.001154221594,
705.0093384,-0.02170619741,705.0093384,-0.001103152055,
704.0045166,-0.02074845135,704.0045166,-0.001559827826,
702.9993286,-0.0205920618,702.9993286,-0.0008155736141,
701.9938354,-0.01961671002,701.9938354,-0.000958585937,
700.9880371,-0.01918547787,700.9880371,-0.0009390588384,
700.0178223,-0.01852800325,700.0178223,-0.0009153978899,
699.0113525,-0.01775951497,699.0113525,-0.0008843473624,
698.0045166,-0.0172464326,698.0045166,-0.0004952267627,
696.9974365,-0.01635258645,696.9974365,-0.001292683301,
695.9900513,-0.01615066081,695.9900513,-0.0004977089702,
694.9822388,-0.01537520252,694.9822388,-0.0008043083944,
694.0100708,-0.01471077744,694.0100708,-0.0009692789754,
693.0015869,-0.01437873486,693.0015869,-0.001362826559,
691.9927979,-0.01450112741,691.9927979,-0.0004457346513,
690.9838257,-0.01369106211,690.9838257,-0.0006459954893,
690.010498,-0.0134290196,690.010498,2.208129263E-005,
689.0007324,-0.01265275478,689.0007324,-0.001375780441,
687.9906616,-0.01202544477,687.9906616,-0.001164754853,
687.0163574,-0.0119922068,687.0163574,-0.001402822323,
686.0057373,-0.01194330305,686.0057373,-0.001037873444,
684.9946899,-0.01136111654,684.9946899,-0.0006287290016,
683.9833374,-0.01119414438,683.9833374,-0.0006017423002,
683.0078125,-0.0101470612,683.0078125,-0.001760864747,
681.9959106,-0.01035043132,681.9959106,-0.001129901037,
680.9835815,-0.01001670677,680.9835815,-0.001459377701,
680.0071411,-0.009809029289,680.0071411,-0.0007856528973,
678.9942017,-0.009527717717,678.9942017,-0.001473721699,
678.0171509,-0.009505836293,678.0171509,-0.00216533849,
677.0036621,-0.009515865706,677.0036621,-0.000907183392,
675.9897461,-0.008775696158,675.9897461,-0.001343524083,
675.0117798,-0.009286360815,675.0117798,-0.0007564019179,
673.9972534,-0.008782799356,673.9972534,-0.001251490088,
672.9824829,-0.008773615584,672.9824829,-0.001067983336,
672.0036011,-0.008419330232,672.0036011,-0.000888118986,
670.9881592,-0.00853143353,670.9881592,-0.0006948445225,
670.008728,-0.007839465514,670.008728,-0.0009738247027,
668.9926147,-0.008170244284,668.9926147,-0.0009759942768,
668.0125732,-0.007136411499,668.0125732,-0.001500086742,
666.9958496,-0.008936195634,666.9958496,-0.0006037069252,
666.0151978,-0.008252949454,666.0151978,-0.001506174798,
664.9979248,-0.008640665561,664.9979248,-0.001086833305,
664.0166016,-0.009140640497,664.0166016,-0.000566636445,
662.9987183,-0.008841191418,662.9987183,-0.001525108819,
662.0169067,-0.008488180116,662.0169067,-0.001695323968,
660.9983521,-0.008615999483,660.9983521,-0.001337898313,
660.0158691,-0.009309418499,660.0158691,-0.0004503893142,
658.9967651,-0.009252811782,658.9967651,-0.0008101477288,
658.0137329,-0.009917181917,658.0137329,-0.0005150840734,
656.9940186,-0.009224176407,656.9940186,-0.001139660366,
656.010376,-0.009310127236,656.010376,-0.0009773373604,
654.9900513,-0.009235630743,654.9900513,-0.001480584033,
654.0057983,-0.009414655156,654.0057983,-0.0009189625853,
652.9848022,-0.009410298429,652.9848022,-0.0009932469111,
652.000061,-0.009849013761,652.000061,-0.0007408970851,
651.0149536,-0.00929654669,651.0149536,-0.001307961997,
649.993103,-0.009457917884,649.993103,-0.0008825906552,
649.0074463,-0.009663333185,649.0074463,-0.001204768778,
647.9849243,-0.009809738025,647.9849243,-0.000496002438,
646.9987183,-0.0103274798,646.9987183,-0.0002184743789,
646.012207,-0.009853417054,646.012207,-0.0008961788262,
644.9888306,-0.009480611421,644.9888306,-0.001676809858,
644.001709,-0.009796628729,644.001709,-0.0008217745344,
643.0143433,-0.009432639927,643.0143433,-0.001552244532,
641.9901123,-0.009633762762,641.9901123,-0.0008734972216,
641.0021362,-0.00989608001,641.0021362,-0.0009226822876,
640.013916,-0.01037469599,640.013916,-0.0004609397147,
638.9887695,-0.00981874764,638.9887695,-0.0004611465847,
637.9998779,-0.009356694296,637.9998779,-0.00111776602,
637.0108643,-0.009765295312,637.0108643,-0.001177921193,
635.9848022,-0.01010224875,635.9848022,-0.0003817537508,
634.9951782,-0.009334805422,634.9951782,-0.001470832271,
634.005188,-0.009665257297,634.005188,-0.0009150878759,
633.0150146,-0.00988605991,633.0150146,-0.0008964371518,
631.987854,-0.009632749483,631.987854,-0.001192842494,
630.9970093,-0.009529743344,630.9970093,-0.0009126597433,
630.0059814,-0.01003906783,630.0059814,-0.0008726705564,
629.0146484,-0.009617862292,629.0146484,-0.001372942002,
627.9862671,-0.009798754007,627.9862671,-0.0009422100848,
626.9943848,-0.009544380009,626.9943848,-0.001398642198,
626.0022583,-0.01001888234,626.0022583,-0.0007576940116,
625.0097656,-0.009977445938,625.0097656,-0.0009407636244,
624.0170898,-0.009811813012,624.0170898,-0.0004243225267,
622.9873047,-0.009760840796,622.9873047,-0.00104587886,
621.9939575,-0.009800576605,621.9939575,-0.0007258052356,
621.0004883,-0.009444797412,621.0004883,-0.001073767547,
620.0065918,-0.01007412374,620.0065918,-0.0006239728536,
619.0125122,-0.009979723021,619.0125122,-0.00110103481,
618.0181274,-0.009977040812,618.0181274,-0.0006435658433,
616.9866333,-0.009942785837,616.9866333,-0.0009339961107,
615.9917603,-0.009953158908,615.9917603,-0.001421606052,
614.996582,-0.009991865605,614.996582,-0.001381199225,
614.0011597,-0.01042418182,614.0011597,-0.001078363857,
613.0053101,-0.009957965463,613.0053101,-0.001156183658,
612.0093384,-0.01013896894,612.0093384,-0.001317304443,
611.0131226,-0.01041467953,611.0131226,-0.0008929756004,
610.0165405,-0.01017037686,610.0165405,-0.001192481024,
608.9828491,-0.01077208854,608.9828491,-0.0006888484932,
607.9857178,-0.01031337492,607.9857178,-0.00107758923,
606.9883423,-0.01034709532,606.9883423,-0.001386360032,
605.9907837,-0.01045961212,605.9907837,-0.001133205835,
604.9929199,-0.01074506901,604.9929199,-0.000887653965,
603.994751,-0.01053253468,603.994751,-0.0007034764858,
602.9963379,-0.01145637874,602.9963379,-0.0004324944166,
601.9976807,-0.01056441851,601.9976807,-0.001574323396,
600.9987793,-0.01090903301,600.9987793,-0.001133773825,
599.9995117,-0.01136479806,599.9995117,-0.0006448581698,
599.000061,-0.01144699939,599.000061,-0.0008546379977,
598.0003052,-0.01109615061,598.0003052,-0.001920060487,
597.0003662,-0.01142133214,597.0003662,-0.0009999618633,
596.000061,-0.01196823362,596.000061,-0.0006878147251,
594.9996338,-0.01193277538,594.9996338,-0.000669619476,
593.9987793,-0.01196239144,593.9987793,-0.001161605236,
592.9978027,-0.01221822295,592.9978027,-0.001086368458,
591.9963989,-0.01276658569,591.9963989,-0.0007421891787,
590.994873,-0.01267779619,590.994873,-0.0008748922264,
589.993103,-0.01300687063,589.993103,-0.0008619751316,
588.9909668,-0.01287918072,588.9909668,-0.001212203293,
587.9886475,-0.01315215323,587.9886475,-0.001237861463,
586.986084,-0.01347971428,586.986084,-0.000882229011,
585.9832764,-0.01380968653,585.9832764,-0.0009172060527,
585.0172729,-0.01366552711,585.0172729,-0.001501686173,
584.013916,-0.01387663372,584.013916,-0.0008740138728,
583.0103149,-0.01407009643,583.0103149,-0.001001976314,
582.0065308,-0.01445816364,582.0065308,-0.0007032180438,
581.0023193,-0.01456471439,581.0023193,-0.001040352508,
579.9979858,-0.01462839171,579.9979858,-0.001212977688,
578.9932861,-0.01500380784,578.9932861,-0.0009538333979,
577.9884644,-0.01503286511,577.9884644,-0.001316272072,
576.9832764,-0.01555476151,576.9832764,-0.00109158433,
576.0151367,-0.0157259088,576.0151367,-0.001099072397,
575.0095215,-0.01581622288,575.0095215,-0.001174616744,
574.0036621,-0.01623674855,574.0036621,-0.00116449676,
572.9974365,-0.01646056771,572.9974365,-0.001084199524,
571.9910889,-0.01666847616,571.9910889,-0.001184323453,
570.9844971,-0.0169487875,570.9844971,-0.001222270541,
570.0148926,-0.01704412512,570.0148926,-0.001600527554,
569.0077515,-0.01769703999,569.0077515,-0.000995467999,
568.0003052,-0.0181287583,568.0003052,-0.0009030502406,
566.9927368,-0.01831289195,566.9927368,-0.001140021835,
565.9848633,-0.01848087087,565.9848633,-0.001102325739,
565.0140381,-0.01879030839,565.0140381,-0.0009703637334,
564.0056152,-0.01933960244,564.0056152,-0.0007336096605,
562.9970703,-0.01951941103,562.9970703,-0.00118876365,
561.9882202,-0.01988721266,561.9882202,-0.001073251129,
561.0164795,-0.02019965462,561.0164795,-0.001142242225,
560.0071411,-0.0204602126,560.0071411,-0.001349872327,
558.9974976,-0.02062667161,558.9974976,-0.001113686594,
557.9876709,-0.02103595808,557.9876709,-0.001129952609,
557.0150146,-0.02125657722,557.0150146,-0.001300271135,
556.0046997,-0.02165689878,556.0046997,-0.001040765666,
554.9941406,-0.02188404463,554.9941406,-0.0009297599318,
553.9832764,-0.02192623168,553.9832764,-0.0008880672976,
553.0097046,-0.02200015821,553.0097046,-0.001021293923,
551.9984741,-0.02212701552,551.9984741,-0.001061062911,
550.9869385,-0.02203509957,550.9869385,-0.0009685557452,
550.0126953,-0.02234024554,550.0126953,-0.001069481019,
549.0006104,-0.02220380865,549.0006104,-0.001028215047,
547.9884644,-0.02202087641,547.9884644,-0.001414381666,
547.0134277,-0.02206447721,547.0134277,-0.0008954038494,
546.0007935,-0.02182619832,546.0007935,-0.001108729164,
544.9877319,-0.02155281231,544.9877319,-0.001121638925,
544.012146,-0.02153059281,544.012146,-0.0009661795339,
542.9986572,-0.02099102177,542.9986572,-0.001116888248,
541.9850464,-0.02058366872,541.9850464,-0.001312194509,
541.008728,-0.02045917511,541.008728,-0.001193462056,
539.9946289,-0.02016426809,539.9946289,-0.001233370043,
539.0178833,-0.0197282359,539.0178833,-0.001109142322,
538.0031738,-0.01947303116,538.0031738,-0.001009620843,
536.9884033,-0.019142529,536.9884033,-0.0007560401573,
536.0109253,-0.01856759004,536.0109253,-0.001135426224,
534.9956665,-0.01772979461,534.9956665,-0.001042573364,
534.0177612,-0.01723478921,534.0177612,-0.0009275384946,
533.0020142,-0.01668302529,533.0020142,-0.00111151766,
531.9859619,-0.01626362838,531.9859619,-0.001160365995,
531.0074463,-0.01563272811,531.0074463,-0.001003267593,
529.9910278,-0.01487200148,529.9910278,-0.001243901439,
529.0119629,-0.01448645629,529.0119629,-0.001050836989,
527.9951172,-0.01412617881,527.9951172,-0.00120538834,
527.015625,-0.01368057728,527.015625,-0.0009400920244,
525.998291,-0.01321262307,525.998291,-0.000923767162,
525.0183716,-0.01267648861,525.0183716,-0.0008834173204,
524.0006104,-0.01221243385,524.0006104,-0.00135653012,
522.9825439,-0.01203325018,522.9825439,-0.0007100925432,
522.0020142,-0.0116380183,522.0020142,-0.000822601316,
520.9835815,-0.01107263286,520.9835815,-0.000984724029,
520.0025635,-0.01079188567,520.0025635,-0.001056156587,
518.9836426,-0.01041255612,518.9836426,-0.0007729915087,
518.0022583,-0.01018807665,518.0022583,-0.0008242032491,
516.9828491,-0.009654421359,516.9828491,-0.000950888847,
516.0010376,-0.009491045959,516.0010376,-0.0006871427759,
514.9812012,-0.009354616515,514.9812012,-0.0009807465831,
513.9989624,-0.009187276475,513.9989624,-0.0007856528973,
513.0165405,-0.008834393695,513.0165405,-0.001181793516,
511.9959717,-0.008565444499,511.9959717,-0.001102583949,
511.0130615,-0.008485336788,511.0130615,-0.001068551443,
509.992157,-0.008291503415,509.992157,-0.00111002021,
509.0088501,-0.008358443156,509.0088501,-0.0008846573182,
507.9875183,-0.008416131139,507.9875183,-0.000951922033,
507.0037842,-0.008406686597,507.0037842,-0.001121793874,
505.9819336,-0.007993754931,505.9819336,-0.001206472516,
504.9977722,-0.008004581556,504.9977722,-0.001067363657,
504.0134277,-0.00806384068,504.0134277,-0.001316013979,
502.9909363,-0.008284950629,502.9909363,-0.001204304164,
502.0061646,-0.008576256223,502.0061646,-0.000492641062,
500.9833374,-0.008483813144,500.9833374,-0.0009550731629,
499.9981079,-0.008392062038,499.9981079,-0.001030590967,
499.0126953,-0.008530519903,499.0126953,-0.001045155805,
497.9891052,-0.008597523905,497.9891052,-0.001212977688,
497.0032959,-0.009020227008,497.0032959,-0.000863266876,
496.0173645,-0.008961503394,496.0173645,-0.001264498918,
494.9931335,-0.009261731058,494.9931335,-0.001070668921,
494.0067749,-0.009530756623,494.0067749,-0.001153343823,
492.9821777,-0.009399050847,492.9821777,-0.001325356308,
491.9953308,-0.009762510657,491.9953308,-0.0009631834691,
491.0082703,-0.01000127569,491.0082703,-0.0006156494492,
489.9830627,-0.009959179908,489.9830627,-0.001039577764,
488.995636,-0.01013209019,488.995636,-0.001072631334,
488.0079956,-0.01003066916,488.0079956,-0.001160004642,
486.9820862,-0.01022908837,486.9820862,-0.0008354163147,
485.9940491,-0.009874217212,485.9940491,-0.001278384821,
485.0058289,-0.01004974172,485.0058289,-0.000843890477,
484.0173645,-0.009500518441,484.0173645,-0.0008359330241,
482.9907532,-0.009483093396,482.9907532,-0.0007416206645,
482.0018921,-0.009449712001,482.0018921,-0.0007608465385,
481.0127869,-0.008822624572,481.0127869,-0.0008517444949,
479.9855957,-0.008403639309,479.9855957,-0.000983277685,
478.9960938,-0.007867175154,478.9960938,-0.001049907296,
478.0064697,-0.00711278012,478.0064697,-0.001226916909,
477.0166321,-0.006621425971,477.0166321,-0.001086110249,
475.9884644,-0.006135641132,475.9884644,-0.001047428232,
474.9982605,-0.005512284115,474.9982605,-0.001030745916,
474.007843,-0.005032983609,474.007843,-0.0008874473278,
473.0172119,-0.004561504349,473.0172119,-0.001009362517,
471.9883728,-0.003897914896,471.9883728,-0.001053832471,
470.9973145,-0.003433162812,470.9973145,-0.0009287266876,
470.0061035,-0.002946933266,470.0061035,-0.0008931822376,
469.01474,-0.002234825864,469.01474,-0.001078983536,
467.9850464,-0.002090223832,467.9850464,-0.0007799165323,
466.9932556,-0.001654375228,466.9932556,-0.0006267645513,
466.0013123,-0.001120657776,466.0013123,-0.001012410037,
465.0091553,-0.0006917431601,465.0091553,-0.001132689416,
464.0167847,-0.0006695160409,464.0167847,-0.0006283154362,
462.986084,-8.287896344E-005,462.986084,-0.000903101929,
461.9933472,0.0001966484415,461.9933472,-0.0008660053136,
461.0003967,0.0004751638335,461.0003967,-0.0008951972122,
460.0073242,0.0005379327922,460.0073242,-0.0006638815976,
459.0140381,0.0008205315098,459.0140381,-0.0007012538845,
457.9823303,0.0009455558029,457.9823303,-0.0007412589039,
456.988678,0.00109223288,456.988678,-0.0008175372495,
455.9948425,0.00138890394,455.9948425,-0.0008254950517,
455.0007629,0.001444506925,455.0007629,-0.0009421584546,
454.0065308,0.001753322431,454.0065308,-0.001089725294,
453.0121155,0.001836578595,453.0121155,-0.001045620535,
452.0175476,0.001821761252,452.0175476,-0.000625678862,
450.9844971,0.001993594691,450.9844971,-0.0005251158145,
449.989563,0.002146505518,449.989563,-0.0008823323296,
448.9943542,0.002353315707,448.9943542,-0.0008694670978,
447.9990234,0.00198272476,447.9990234,-0.0005845775013,
447.00354,0.002413623733,447.00354,-0.001067466917,
446.007782,0.002259083558,446.007782,-0.001003422542,
445.0119019,0.002410317771,445.0119019,-0.0008272003033,
444.0158997,0.002462979872,444.0158997,-0.0008570665377,
442.9812927,0.002270194702,442.9812927,-0.0003760120599,
441.9848328,0.0026989826,441.9848328,-0.0009483575705,
440.9882507,0.002631994197,440.9882507,-0.0009283650434,
439.9914551,0.002285964089,439.9914551,-0.0003289378365,
438.9945068,0.002393971197,438.9945068,-0.0005644648336,
437.997345,0.002286978997,437.997345,-0.0007444632938,
437.0000305,0.002397042699,437.0000305,-0.001090551494,
436.0025024,0.002067221329,436.0025024,-0.0008678137092,
435.0048218,0.002026622416,435.0048218,-0.0009372507338,
434.006958,0.001723823952,434.006958,-0.000753404398,
433.0089111,0.001665872522,433.0089111,-0.0006813017535,
432.0107117,0.001582441269,432.0107117,-0.0006831109058,
431.0123291,0.00182724616,431.0123291,-0.001113996375,
430.0137634,0.001368674682,430.0137634,-0.000890030642,
429.0150452,0.001650047721,429.0150452,-0.0009897861164,
428.0161438,0.001419288688,428.0161438,-0.0009157595341,
427.0170288,0.001201994251,427.0170288,-0.0008167104679,
426.0177612,0.001421859721,426.0177612,-0.001073199441,
425.0183716,0.001158491243,425.0183716,-0.0007876166492,
424.0187378,0.0008802118246,424.0187378,-0.0004734550603,
423.0189514,0.0007228456088,423.0189514,-0.0007420858601,
422.0190125,0.000528472825,422.0190125,-0.0008314891602,
421.0189514,0.0006394915981,421.0189514,-0.0008309724508,
420.0185852,0.0001329706865,420.0185852,-0.0005812168238,
419.018158,0.0001719427528,419.018158,-0.001000375021,
418.0174866,-0.00025490197,418.0174866,-0.0005956933601,
417.0166931,-0.0002487446764,417.0166931,-0.001042780001,
416.0157166,-9.312773182E-005,416.0157166,-0.001400809735,
415.0145569,-0.0008965404704,415.0145569,-0.0009577077581,
414.0132751,-0.0009475310217,414.0132751,-0.0009879266145,
413.0117493,-0.001242765808,413.0117493,-0.0007169669261,
412.0101318,-0.001276216819,412.0101318,-0.0009181359783,
411.0083008,-0.001429501222,411.0083008,-0.001000581658,
410.0063171,-0.001646690536,410.0063171,-0.001258717268,
409.0042114,-0.00201638462,409.0042114,-0.0009575527511,
408.0018921,-0.001955469372,408.0018921,-0.000929449976,
406.9993896,-0.002304302296,406.9993896,-0.0008173822425,
405.9967346,-0.0022041786,405.9967346,-0.0008431670722,
404.993927,-0.002602218883,404.993927,-0.0005308038089,
403.9909058,-0.002280663932,403.9909058,-0.0009573461139,
402.9878235,-0.002277419437,402.9878235,-0.0009721717215,
401.9844971,-0.002507671714,401.9844971,-0.001091274549,
400.9810181,-0.001987731783,400.9810181,-0.001108729164,
400.0159607,-0.001457313658,400.0159607,-0.001480893581,
399.012207,-0.001848305925,399.012207,-0.001000530086,
398.0082397,-0.001533260103,398.0082397,-0.001102583949,
397.0041199,-0.001666546799,397.0041199,-0.001089415397,
395.9998474,-0.001585362363,395.9998474,-0.0009841558058,
394.9954224,-0.001442814246,394.9954224,-0.000809734338,
393.9908142,-0.001254639123,393.9908142,-0.0008904439746,
392.986084,-0.0009503206238,392.986084,-0.0009637000039,
391.9811401,-0.0006271264283,391.9811401,-0.000672979455,
391.0147705,-0.0002653536503,391.0147705,-0.0006667246926,
390.009491,-0.0001364493946,390.009491,-0.0009298632503,
389.0041199,0.0001887497201,389.0041199,-0.0009238188504,
387.9985657,0.0008246292127,387.9985657,-0.0008103027358,
386.9928894,0.001245605294,386.9928894,-0.001119780005,
385.9869995,0.001653841464,385.9869995,-0.0006917431601,
384.9810181,0.002056739759,384.9810181,-0.0009275384946,
384.0135193,0.002941186307,384.0135193,-0.0009252137388,
383.0071716,0.00297186221,383.0071716,-0.0007833273266,
382.0007324,0.003541127779,382.0007324,-0.0006326062721,
380.9940796,0.004260302521,380.9940796,-0.0006368970498,
379.9872742,0.004739367869,379.9872742,-0.000740483636,
379.0190735,0.005364443175,379.0190735,-0.0001359318267,
378.0119934,0.006286517251,378.0119934,-0.0009474793915,
377.0047302,0.00635719765,377.0047302,-0.0001214399817,
375.997345,0.007065189071,375.997345,-0.0005298213218,
374.9897461,0.008330383338,374.9897461,-0.000966747757,
373.9820862,0.008799168281,373.9820862,-0.001070462284,
373.01297,0.008838001639,373.01297,-0.0006178208278,
372.0049744,0.009663481265,372.0049744,-0.0005817855708,
370.9968262,0.0102212904,370.9968262,-0.000699393102,
369.9884949,0.01116689201,369.9884949,-0.001566843479,
369.0188293,0.01167903561,369.0188293,-0.001017936622,
368.0102234,0.01180908736,368.0102234,-0.0005499873077,
367.0014648,0.01220054273,367.0014648,-0.0009189625853,
365.9925842,0.01295080129,365.9925842,-0.001395958709,
364.9835205,0.01305679884,364.9835205,-0.0008006393327,
364.0131836,0.01434299257,364.0131836,-0.001766227302,
363.0038147,0.01366030984,363.0038147,-0.001103048795,
361.9943542,0.01412814856,361.9943542,-0.0008926655864,
360.9847107,0.01483862009,360.9847107,-0.001183239161,
360.0137329,0.01472203713,360.0137329,-0.000939162157,
359.0037842,0.01457440574,359.0037842,-0.0009127630619,
357.9937744,0.01519941259,357.9937744,-0.0009576044395,
356.9835205,0.01517775189,356.9835205,-0.000770820945,
356.0120239,0.01574221067,356.0120239,-0.001065969234,
355.0015564,0.01555326115,355.0015564,-0.0006506997161,
353.9909058,0.01595334336,353.9909058,-0.0009261952946,
353.0189819,0.01652859896,353.0189819,-0.001364890952,
352.0080872,0.01599851437,352.0080872,-0.0006045858026,
350.9970093,0.01632877067,350.9970093,-0.0009739796515,
349.9858093,0.01647337154,349.9858093,-0.0008980387938,
349.0133667,0.01670194045,349.0133667,-0.0009580693441,
348.0018616,0.01683084294,348.0018616,-0.001110329991,
346.9902039,0.01695956662,346.9902039,-0.001024806174,
346.017334,0.0169929713,346.017334,-0.0004320289299,
345.0054321,0.01701388881,345.0054321,0.0004572833132,
343.9934082,0.01726297103,343.9934082,-0.0005968824844,
342.9812012,0.01766085811,342.9812012,-0.0009573978023,
342.007843,0.01751901582,342.007843,-0.0005455922219,
340.9953613,0.01782656088,340.9953613,-0.0007105060504,
339.9827881,0.01786928438,339.9827881,-0.0004522511736,
339.0089722,0.01791031286,339.0089722,-0.0007294748793,
337.9961243,0.01829046011,337.9961243,-0.0006603664369,
336.9831238,0.01859882288,336.9831238,-0.0008018795634,
336.0089417,0.01879872568,336.0089417,-0.0008095276426,
334.9956665,0.01885154843,334.9956665,-0.0005013805348,
333.9822083,0.01920034923,333.9822083,-0.0007249265327,
333.0076599,0.01927045733,333.0076599,-0.0001490775903,
331.993988,0.01987253688,331.993988,-0.0008131448994,
331.0191956,0.02007009834,331.0191956,-0.0005504009314,
330.0052185,0.02026924305,330.0052185,-0.0006009151111,
328.9911804,0.02088015154,328.9911804,-0.0002051754855,
328.0159607,0.02159401029,328.0159607,-0.0005510731135,
327.0016174,0.02234005742,327.0016174,-0.0007213602657,
325.9871521,0.02270814776,325.9871521,-0.000435132155,
325.0115662,0.02331007086,325.0115662,-0.0005407317658,
323.9968262,0.02440373413,323.9968262,-0.0008249783423,
322.9819641,0.02486051619,322.9819641,-0.0003644250392,
322.0060425,0.02562875859,322.0060425,-0.0005305452505,
320.9908752,0.02645594068,320.9908752,-0.0006692059105,
320.014679,0.02715029009,320.014679,-0.0005697386805,
318.9992981,0.02759356052,318.9992981,2.006208888E-005,
317.9837952,0.02888763323,317.9837952,-0.0004559231456,
317.0072327,0.02968160808,317.0072327,-0.000446820748,
315.9914856,0.02988817729,315.9914856,-3.856838157E-005,
315.0146484,0.03097075224,315.0146484,-2.583342757E-005,
313.9986572,0.03173924983,313.9986572,-0.0005223234766,
312.9824829,0.03293088451,312.9824829,-0.000941383536,
312.0053406,0.03345527127,312.0053406,-0.0005317345494,
310.9889832,0.03378864005,310.9889832,-0.0003213330347,
310.0115356,0.0345287919,310.0115356,-0.0003349905019,
308.994873,0.03555077687,308.994873,-0.0007156230276,
308.0172424,0.03579554334,308.0172424,-0.0002691824047,
307.0003662,0.03714012727,307.0003662,-0.000770820945,
305.9833679,0.03725270554,305.9833679,-0.0003138833272,
305.0053406,0.03801520169,305.0053406,-0.0002978453413,
303.9880676,0.0395010747,303.9880676,-0.001020880765,
303.0098267,0.03922165558,303.0098267,4.040987551E-005,
301.9923706,0.0398854278,301.9923706,0.0003915723064,
301.013855,0.04051173851,301.013855,0.0005281877238,
299.9961548,0.04145475104,299.9961548,0.0005679469323,
299.0174561,0.04221665487,299.0174561,0.001070823753,
297.9994812,0.04390474409,297.9994812,0.001005979837,
296.9813843,0.04399855062,296.9813843,0.0031342695,
296.0023193,0.04491874576,296.0023193,0.004090679344,
294.9840088,0.04562380537,294.9840088,0.006429439876,
294.0047302,0.04688889533,294.0047302,0.008980127983,
292.986145,0.0474235788,292.986145,0.01503706723,
292.0066528,0.04747786373,292.0066528,0.01827104948,
290.987854,0.0475667268,290.987854,0.02433933504,
290.0081482,0.04876250774,290.0081482,0.03015302494,
288.9891052,0.05000297725,288.9891052,0.03924556822,
288.0091553,0.05106539652,288.0091553,0.0502839312,
286.9898987,0.05239712819,286.9898987,0.06074405834,
286.0097351,0.05349783972,286.0097351,0.07350064814,
284.9902649,0.0547698997,284.9902649,0.08817910403,
284.0098572,0.05548006296,284.0098572,0.1056349203,
282.9901428,0.05636041239,282.9901428,0.1241805926,
282.0095215,0.05726484954,282.0095215,0.1424598396,
280.989624,0.0584041588,280.989624,0.1652719378,
280.0087891,0.05923773721,280.0087891,0.1885923296,
278.9886169,0.06060748547,278.9886169,0.2188016176,
278.0075684,0.06138331816,278.0075684,0.2507899404,
276.9872131,0.06267883629,276.9872131,0.2832224369,
276.0059509,0.06360448897,276.0059509,0.3158514202,
274.985321,0.06449760497,274.985321,0.3587921262,
274.0039063,0.06532895565,274.0039063,0.4057658911,
272.9830627,0.06627971679,272.9830627,0.4565508068,
272.0014038,0.06637447327,272.0014038,0.499967128,
271.0196228,0.06647193432,271.0196228,0.5459962487,
269.9985046,0.06550190598,269.9985046,0.6015146971,
269.01651,0.06511817873,269.01651,0.6497434378,
267.9951172,0.06505854428,267.9951172,0.6976166964,
267.0129395,0.06525665522,267.0129395,0.7286852002,
265.991394,0.0657281056,265.991394,0.7586982846,
265.0090027,0.06580767781,265.0090027,0.7894729972,
263.9871826,0.06656081229,263.9871826,0.8155625463,
263.0046082,0.06685380638,263.0046082,0.8361749053,
261.9826355,0.06765326113,261.9826355,0.8538660407,
260.9998169,0.06763027608,260.9998169,0.86974895,
260.0169373,0.06854820251,260.0169373,0.8817519546,
258.9945984,0.0693249777,258.9945984,0.8952997923,
258.0115051,0.06994132698,258.0115051,0.9048736095,
256.9890137,0.07042708248,256.9890137,0.9072242975,
256.0057373,0.07094529271,256.0057373,0.9035773277,
254.983017,0.0710318014,254.983017,0.8935223818,
253.999527,0.07179656625,253.999527,0.8661222458,
253.0159454,0.07226230204,253.0159454,0.8415784836,
251.9929504,0.07340598106,251.9929504,0.8168491721,
251.0091705,0.07395645976,251.0091705,0.7904674411,
249.9859314,0.07425586879,249.9859314,0.7605330944,
249.0019836,0.07517047226,249.0019836,0.729701221,
248.0179138,0.07573789358,248.0179138,0.696967721,
246.9943848,0.07663805783,246.9943848,0.6717499495,
246.0101471,0.07824295014,246.0101471,0.6375336051,
244.9864349,0.07914649695,244.9864349,0.5861985683,
244.0019836,0.08032595366,244.0019836,0.5410892963,
243.0174866,0.08123562485,243.0174866,0.5039045215,
241.9934692,0.08302331716,241.9934692,0.4757747948,
241.0087433,0.08502580225,241.0087433,0.4417658448,
239.9845581,0.08698000014,239.9845581,0.4044141769,
238.9996796,0.08965123445,238.9996796,0.3719884157,
238.0146637,0.09250950068,238.0146637,0.3418382406,
236.9901886,0.09513475746,236.9901886,0.3165372312,
236.0050354,0.0988503173,236.0050354,0.2927004397,
234.9803619,0.1030383483,234.9803619,0.2659957409,
233.9950104,0.1073419303,233.9950104,0.2476082593,
233.0095978,0.1115751415,233.0095978,0.2308676541,
231.9846344,0.1151132435,231.9846344,0.2165778875,
230.9989929,0.1214207932,230.9989929,0.2056134939,
230.0133057,0.12484283,230.0133057,0.1969368607,
228.9881134,0.1300471425,228.9881134,0.1931253076,
228.0021973,0.1353119612,228.0021973,0.1930130571,
227.0162506,0.1395107657,227.0162506,0.1968855709,
225.9907532,0.144223541,225.9907532,0.2074278593,
225.0046082,0.1479682475,225.0046082,0.2225461006,
224.0183868,0.1530287564,224.0183868,0.2436600029,
222.99263,0.1565675139,222.99263,0.2757724226,
222.0062408,0.1613149941,222.0062408,0.3115225434,
220.9803009,0.1673559695,220.9803009,0.3676411808,
219.9937439,0.1727425009,219.9937439,0.4336706102,

Baseline 100%T,
Baseline 100%T
Collection Time: 7/8/2026 10:13:15 PM
Operator Name  :
Scan Version 5.1.0.1016
Parameter List :
Instrument  Cary 60
Instrument Version  2.00
Start (nm)  800.0
Stop (nm)  220.0
X Mode  Nanometers
Y Mode  Abs
UV-Vis Scan Rate (nm/min)  4800.000
UV-Vis Data Interval (nm)  1.00
UV-Vis Ave. Time (sec)  0.0125
Beam Mode  Dual Beam
Baseline Correction  On
Baseline Type  Baseline correction
Baseline File Name
Baseline Std Ref File Name
Cycle Mode  Off
Method Log     :
Method Name    :
Date/Time stamp: 7/8/2026 10:10:23 PM
Method Modifications:
UVVIS SAT Changed: 7/8/2026 10:10:40 PM, Old:0.0125, New:0.1000
Common SAT Changed: 7/8/2026 10:10:40 PM, Old:0.0125, New:0.1000
UVVIS SAT Changed: 7/8/2026 10:10:46 PM, Old:0.1000, New:0.0125
Common SAT Changed: 7/8/2026 10:10:46 PM, Old:0.1000, New:0.0125
X Stop nm Changed: 7/8/2026 10:10:48 PM, Old:  200.0, New:  220.0
Common Interval nm Changed: 7/8/2026 10:10:48 PM, Old:     5.00, New:     1.00
Baseline Correction Changed: 7/8/2026 10:10:48 PM, Old:0, New:1
Storage Changed: 7/8/2026 10:10:48 PM, Old:1, New:0
End Method Modifications
<Current Wavelength> , 238.0

SAM synthesis rotovap 200x,
SAM synthesis rotovap 200x
Collection Time: 7/8/2026 10:14:42 PM
Operator Name  :
Scan Version 5.1.0.1016
Parameter List :
Instrument  Cary 60
Instrument Version  2.00
Start (nm)  800.0
Stop (nm)  220.0
X Mode  Nanometers
Y Mode  Abs
UV-Vis Scan Rate (nm/min)  4800.000
UV-Vis Data Interval (nm)  1.00
UV-Vis Ave. Time (sec)  0.0125
Beam Mode  Dual Beam
Baseline Correction  On
Baseline Type  Baseline correction
Baseline File Name
Baseline Std Ref File Name
Cycle Mode  Off
Method Log     :
Method Name    :
Date/Time stamp: 7/8/2026 10:10:23 PM
Method Modifications:
UVVIS SAT Changed: 7/8/2026 10:10:40 PM, Old:0.0125, New:0.1000
Common SAT Changed: 7/8/2026 10:10:40 PM, Old:0.0125, New:0.1000
UVVIS SAT Changed: 7/8/2026 10:10:46 PM, Old:0.1000, New:0.0125
Common SAT Changed: 7/8/2026 10:10:46 PM, Old:0.1000, New:0.0125
X Stop nm Changed: 7/8/2026 10:10:48 PM, Old:  200.0, New:  220.0
Common Interval nm Changed: 7/8/2026 10:10:48 PM, Old:     5.00, New:     1.00
Baseline Correction Changed: 7/8/2026 10:10:48 PM, Old:0, New:1
Storage Changed: 7/8/2026 10:10:48 PM, Old:1, New:0
End Method Modifications
<Current Wavelength> , 238.0

