Baseline 100%T,,TigE 200,,
Wavelength (nm),Abs,Wavelength (nm),Abs,
799.9848022,-0.007736592088,799.9848022,0.02507629432,
799.0141602,-0.007539422717,799.0141602,0.02532700077,
798.0085449,-0.007409147918,798.0085449,0.02529223636,
797.0025024,-0.007467827294,797.0025024,0.02532919683,
795.9959106,-0.007416527718,795.9959106,0.02608026378,
794.9890137,-0.007153268438,794.9890137,0.02573004179,
794.0164185,-0.007341043558,794.0164185,0.02644584328,
793.0087891,-0.007552600466,793.0087891,0.02667397261,
792.0007324,-0.007544866763,792.0007324,0.02688297071,
790.9921875,-0.007568830624,790.9921875,0.02698490396,
789.9833984,-0.007832957432,789.9833984,0.0276328139,
789.0088501,-0.007309125271,789.0088501,0.02710105106,
787.9992676,-0.007088689134,787.9992676,0.02716988325,
786.9891357,-0.006851119921,786.9891357,0.02761893906,
786.0134888,-0.007271146402,786.0134888,0.0277291853,
785.0026855,-0.007302151062,785.0026855,0.02828152664,
783.9914551,-0.007075955626,783.9914551,0.02774852701,
783.0147095,-0.007170837373,783.0147095,0.02867542952,
782.0026245,-0.007102084346,782.0026245,0.02844950929,
780.9902344,-0.007180920336,780.9902344,0.02888348326,
780.0123291,-0.00709811179,780.0123291,0.0290241614,
778.9991455,-0.006967551541,778.9991455,0.02918235213,
777.9855347,-0.006870332174,777.9855347,0.02907644212,
777.0065308,-0.006967296824,777.0065308,0.02949475311,
775.9921265,-0.007014013827,775.9921265,0.02935167961,
775.0123901,-0.007195993327,775.0123901,0.02976900898,
773.9972534,-0.00730311824,773.9972534,0.0300921537,
773.0167847,-0.007085480262,773.0167847,0.03044163622,
772.0008545,-0.007162689697,772.0008545,0.03009209782,
770.9845581,-0.007777479943,770.9845581,0.03091715835,
770.0029297,-0.007653482724,770.0029297,0.03094801307,
768.9859009,-0.007297059987,768.9859009,0.03073888458,
768.003479,-0.007894172333,768.003479,0.03139378875,
766.9856567,-0.008030349389,766.9856567,0.0313292332,
766.0025635,-0.007759070955,766.0025635,0.03129098192,
764.9839478,-0.008477873169,764.9839478,0.0318710506,
764.0001221,-0.008876954205,764.0001221,0.03218840435,
763.0159302,-0.008335030638,763.0159302,0.03203727677,
761.9962158,-0.008633407764,761.9962158,0.03232125938,
761.0112305,-0.008449491113,761.0112305,0.03247736394,
759.9907227,-0.008964191191,759.9907227,0.03292432055,
759.005127,-0.008968349546,759.005127,0.03259005025,
757.9838257,-0.009653409012,757.9838257,0.03338775411,
756.9974365,-0.009633661248,756.9974365,0.03322570398,
756.0106812,-0.009681003168,756.0106812,0.03311430663,
754.9883423,-0.009838335216,754.9883423,0.03339608759,
754.0009155,-0.01028137095,754.0009155,0.03400523588,
753.0130615,-0.01067213062,753.0130615,0.03438710421,
751.989563,-0.01090236846,751.989563,0.03396856412,
751.0010986,-0.01138784643,751.0010986,0.03446878865,
750.012146,-0.01182708889,750.012146,0.03463438526,
748.9874878,-0.01198037155,748.9874878,0.03463360295,
747.9979248,-0.01255343016,747.9979248,0.03551607952,
747.0078735,-0.01284409873,747.0078735,0.03536741436,
746.0176392,-0.01297426131,746.0176392,0.03493956849,
744.9915161,-0.01374518685,744.9915161,0.03561039641,
744.0004883,-0.01449627057,744.0004883,0.0361562036,
743.0090942,-0.01463870332,743.0090942,0.03610666469,
742.017334,-0.01500725932,742.017334,0.03594848886,
740.9897461,-0.01557753794,740.9897461,0.03616258875,
739.9973145,-0.01612646878,739.9973145,0.03665960208,
739.0045166,-0.0165838208,739.0045166,0.03676898405,
738.0114136,-0.01727703027,738.0114136,0.03695288301,
736.9823608,-0.0178814549,736.9823608,0.03736017644,
735.9884644,-0.01840271987,735.9884644,0.03707615286,
734.9942627,-0.01930380054,734.9942627,0.0377301015,
733.9996948,-0.01989161409,733.9996948,0.03791411966,
733.0048218,-0.02065224573,733.0048218,0.03810551018,
732.0095825,-0.02131050825,732.0095825,0.03811424226,
731.0139771,-0.02197146416,731.0139771,0.03830880299,
729.9824829,-0.02288172953,729.9824829,0.038775675,
728.986145,-0.02361351438,728.986145,0.0390855372,
727.989502,-0.02413005382,727.989502,0.03908530995,
726.9924927,-0.02476795949,726.9924927,0.03941623122,
725.9951782,-0.02511834726,725.9951782,0.03968590498,
724.9974976,-0.02546025068,724.9974976,0.03984130546,
723.9995117,-0.0256262701,723.9995117,0.04009943455,
723.0010986,-0.02584964409,723.0010986,0.04031261057,
722.0024414,-0.02602653392,722.0024414,0.04076002911,
721.0033569,-0.02582330257,721.0033569,0.04079921171,
720.0039673,-0.02576104924,720.0039673,0.04122797772,
719.0042725,-0.02551776171,719.0042725,0.04123682901,
718.0042725,-0.02518025227,718.0042725,0.04142652825,
717.0038452,-0.02495795116,717.0038452,0.04174869135,
716.0031128,-0.02467821538,716.0031128,0.04220138863,
715.0020752,-0.02399408072,715.0020752,0.04202347249,
714.0006104,-0.02369970456,714.0006104,0.04257543385,
712.9988403,-0.02299330384,712.9988403,0.04282079637,
711.9968262,-0.02234132774,711.9968262,0.04278788716,
710.9943848,-0.0216492638,710.9943848,0.04324103892,
709.9916382,-0.02088761516,709.9916382,0.04355513677,
708.9885254,-0.02008389868,708.9885254,0.0436658971,
707.9851074,-0.01926185377,707.9851074,0.04382212833,
707.0171509,-0.01865568012,707.0171509,0.04413217679,
706.0131226,-0.01766736433,706.0131226,0.04445695505,
705.008667,-0.01673966646,705.008667,0.0446402058,
704.0039063,-0.01593936048,704.0039063,0.04493760318,
702.9988403,-0.01501005981,702.9988403,0.04498267919,
701.9934692,-0.01452726405,701.9934692,0.04543120414,
700.9876709,-0.013682032,700.9876709,0.04551294819,
700.0175781,-0.01292054262,700.0175781,0.04580197111,
699.0111694,-0.01219229866,699.0111694,0.04609864205,
698.0044556,-0.01153024286,698.0044556,0.04623302817,
696.9974365,-0.01071420778,696.9974365,0.0464673005,
695.9900513,-0.01035664976,695.9900513,0.0469282344,
694.9822998,-0.009632901289,694.9822998,0.04716351256,
694.0103149,-0.009177950211,694.0103149,0.04723375291,
693.0019531,-0.008674414828,693.0019531,0.04745300114,
691.9932861,-0.008205502294,691.9932861,0.04737034068,
690.9842529,-0.007731658872,690.9842529,0.04795984551,
690.0109863,-0.007401971612,690.0109863,0.04827170819,
689.0012817,-0.006840010174,689.0012817,0.0482924208,
687.991394,-0.006447316147,687.991394,0.04850352183,
687.0171509,-0.006317376625,687.0171509,0.04911688343,
686.0065308,-0.005990034435,686.0065308,0.04948205128,
684.9956055,-0.005691163708,684.9956055,0.04968789965,
683.984314,-0.005137982778,683.984314,0.04968813062,
683.0089111,-0.004830281716,683.0089111,0.04977666214,
681.9970093,-0.004817737732,681.9970093,0.05048471689,
680.9848022,-0.004281693138,680.9848022,0.05046212673,
680.0084839,-0.003918181639,680.0084839,0.05068807304,
678.9956665,-0.003781170351,678.9956665,0.05109704658,
677.9824829,-0.003221284831,677.9824829,0.05121519417,
677.005127,-0.003391504288,677.005127,0.05176926032,
675.991394,-0.002931609284,675.991394,0.05194260925,
675.0134888,-0.002590690972,675.0134888,0.0517869629,
673.9990845,-0.002387360437,673.9990845,0.05199597403,
672.984375,-0.002488574479,672.984375,0.0526124835,
672.0055542,-0.002187437611,672.0055542,0.05280607939,
670.9901733,-0.002075281925,670.9901733,0.05281949788,
670.0108032,-0.001805257751,670.0108032,0.05313554034,
668.994873,-0.001706102048,668.994873,0.05362616107,
668.0148926,-0.001574632828,668.0148926,0.05368986726,
666.99823,-0.002308113035,666.99823,0.05431066453,
666.0176392,-0.002459849697,666.0176392,0.05448142067,
665.0004883,-0.002553892555,665.0004883,0.0543185547,
663.9829102,-0.002985960571,663.9829102,0.05523270741,
663.0014038,-0.002934334567,663.0014038,0.05513470992,
661.9833374,-0.002822423121,661.9833374,0.05516292527,
661.0012207,-0.003097830107,661.0012207,0.05571345985,
659.9824219,-0.002897771075,659.9824219,0.05559258163,
658.9998169,-0.003041590564,658.9998169,0.05604336783,
658.0168457,-0.002995061455,658.0168457,0.05634048954,
656.9971313,-0.003228581976,656.9971313,0.05657199398,
656.0136108,-0.003347221762,656.0136108,0.05693713948,
654.9933472,-0.003362428397,654.9933472,0.05726901442,
654.0092163,-0.003448777366,654.0092163,0.05733284354,
652.9883423,-0.003456327366,652.9883423,0.05789974332,
652.0036011,-0.0036522788,652.0036011,0.05814859271,
650.9821777,-0.003487400012,650.9821777,0.05807482079,
649.9967651,-0.003479131497,649.9967651,0.05844635889,
649.0112305,-0.003490686882,649.0112305,0.05857588351,
647.9888916,-0.003558268072,647.9888916,0.05886821821,
647.0026855,-0.00382751273,647.0026855,0.05940649658,
646.0162964,-0.003913615365,646.0162964,0.05999115109,
644.992981,-0.003838289296,644.992981,0.05988821015,
644.0059204,-0.003923517652,644.0059204,0.0606106706,
642.9821167,-0.003751710057,642.9821167,0.06037257239,
641.9945068,-0.003745756112,641.9945068,0.06051814556,
641.0066528,-0.003725789255,641.0066528,0.0608285293,
639.9818726,-0.003755559446,639.9818726,0.06130064651,
638.9934082,-0.003670041682,638.9934082,0.06121560559,
638.0046997,-0.003776705358,638.0046997,0.06158480048,
637.015686,-0.003839880228,637.015686,0.06172663346,
635.9897461,-0.003905611346,635.9897461,0.06196027994,
635.0001831,-0.003986619879,635.0001831,0.06244474649,
634.0103149,-0.003878930118,634.0103149,0.06261909008,
632.9834595,-0.003868000582,632.9834595,0.06294971704,
631.993103,-0.003882162739,631.993103,0.06319114566,
631.0023193,-0.003954915795,631.0023193,0.0634290874,
630.0113525,-0.004066997673,630.0113525,0.06389318407,
628.9833984,-0.004005805124,628.9833984,0.06391189247,
627.9918213,-0.004033812322,627.9918213,0.06430280954,
627.000061,-0.004082127474,627.000061,0.06459969282,
626.0079346,-0.004288408905,626.0079346,0.06492992491,
625.015564,-0.004234989174,625.015564,0.06512136757,
623.986145,-0.004119309597,623.986145,0.06525819004,
622.9932861,-0.004122386687,622.9932861,0.06542936713,
622.000061,-0.004382568877,622.000061,0.06596897542,
621.0065918,-0.004372472409,621.0065918,0.06624284387,
620.0128174,-0.004416906741,620.0128174,0.06637332588,
618.9819946,-0.004401532002,618.9819946,0.06661371142,
617.9877319,-0.004544085823,617.9877319,0.06679765135,
616.993103,-0.004477733746,616.993103,0.06704292446,
615.998291,-0.004594598431,615.998291,0.06736955047,
615.0031738,-0.004629892763,615.0031738,0.06770335883,
614.0078125,-0.004792955704,614.0078125,0.06790606678,
613.012146,-0.004816150293,613.012146,0.06817770749,
612.0162964,-0.004928982817,612.0162964,0.06841445714,
610.9831543,-0.005054323468,610.9831543,0.06866098195,
609.9866333,-0.00489780819,609.9866333,0.06860395521,
608.9899902,-0.00501369033,608.9899902,0.06904563308,
607.992981,-0.005065530073,607.992981,0.06931538135,
606.9957886,-0.005062203854,606.9957886,0.06946534663,
605.9981689,-0.005221728701,605.9981689,0.06965605915,
605.0003662,-0.005321363918,605.0003662,0.06987996399,
604.0023804,-0.005467501469,604.0023804,0.07025894523,
603.0039673,-0.005559617653,603.0039673,0.07056129724,
602.0053711,-0.005734083708,602.0053711,0.07093472034,
601.0065308,-0.005902606528,601.0065308,0.07095754892,
600.0074463,-0.006140337326,600.0074463,0.07141078264,
599.0079956,-0.006026134361,599.0079956,0.07119093835,
598.0084229,-0.006317274645,598.0084229,0.07153761387,
597.0085449,-0.006465882994,597.0085449,0.07184253633,
596.0083008,-0.006675521843,596.0083008,0.07237702608,
595.0078735,-0.006593534723,595.0078735,0.07216414809,
594.0072021,-0.006909823976,594.0072021,0.07264263183,
593.0062866,-0.007291968912,593.0062866,0.07307126373,
592.0050049,-0.007346286438,592.0050049,0.07309527695,
591.0036011,-0.007574427407,591.0036011,0.0734449476,
590.0018311,-0.00775861321,590.0018311,0.07380026579,
588.9998779,-0.007838194259,588.9998779,0.07382901758,
587.9976196,-0.008171006106,587.9976196,0.07430642098,
586.9950562,-0.008427809924,586.9950562,0.07455492765,
585.9923706,-0.008608234115,585.9923706,0.07482590526,
584.9892578,-0.008710139431,584.9892578,0.07495087385,
583.9860229,-0.008945629001,583.9860229,0.07531441748,
582.9824829,-0.009208818898,582.9824829,0.07546921074,
582.0159302,-0.009454321116,582.0159302,0.07585735619,
581.0118408,-0.009705254808,581.0118408,0.07614284009,
580.0075684,-0.01003714465,580.0075684,0.076687783,
579.0029907,-0.01019232441,579.0029907,0.07674201578,
577.99823,-0.01039724145,577.99823,0.07716605812,
576.9931641,-0.01071173325,576.9931641,0.07731629163,
575.987854,-0.01116089337,575.987854,0.07802426815,
574.9822998,-0.01134507824,574.9822998,0.07816766948,
574.0137329,-0.01161251403,574.0137329,0.07837740332,
573.0076904,-0.01196284499,573.0076904,0.07890789211,
572.0014038,-0.01226120722,572.0014038,0.07915261388,
570.994812,-0.01266140398,570.994812,0.0796142444,
569.9880371,-0.01284389757,569.9880371,0.07987893373,
569.0183105,-0.01321789622,569.0183105,0.08041456342,
568.0110474,-0.01354876999,568.0110474,0.08066939563,
567.003418,-0.01393244043,567.003418,0.08106562495,
565.9956055,-0.01427238993,565.9956055,0.08165888488,
564.9876709,-0.01450087782,564.9876709,0.08196337521,
564.0167236,-0.01492462866,564.0167236,0.08238200098,
563.0081177,-0.01534551848,563.0081177,0.08290509135,
561.9993896,-0.01573988795,561.9993896,0.08347976208,
560.9903564,-0.01603616774,560.9903564,0.08376600593,
560.0184937,-0.01633139513,560.0184937,0.08416122943,
559.0089722,-0.01679152064,559.0089722,0.08494977653,
557.9992065,-0.01696357504,557.9992065,0.08520419896,
556.9891968,-0.01719975844,556.9891968,0.08575091511,
556.0164185,-0.0175487455,556.0164185,0.0862576589,
555.0059204,-0.01781551912,555.0059204,0.08678661287,
553.9952393,-0.01795542799,553.9952393,0.08714733273,
552.9842529,-0.01823242754,552.9842529,0.08796046674,
552.010498,-0.01837567426,552.010498,0.08848626167,
550.9990234,-0.01847189106,550.9990234,0.0890186131,
549.9874268,-0.01852472872,549.9874268,0.08963984251,
549.0129395,-0.01848836243,549.0129395,0.09010727704,
548.0007935,-0.01847015321,548.0007935,0.09061839432,
546.9883423,-0.01856897771,546.9883423,0.09145880491,
546.0132446,-0.01844534464,546.0132446,0.09209185094,
545.0003662,-0.01824131235,545.0003662,0.09264010936,
543.9873047,-0.01801448688,543.9873047,0.09328255802,
543.0114746,-0.01756172255,543.0114746,0.09397824109,
541.9979248,-0.01725120842,541.9979248,0.09454572201,
540.9841309,-0.01717059687,540.9841309,0.09565838426,
540.0076294,-0.01671914384,540.0076294,0.09619129449,
538.9934082,-0.01634590514,538.9934082,0.09686745703,
538.0164795,-0.01581682265,538.0164795,0.09755131602,
537.001709,-0.01537740137,537.001709,0.09838035703,
535.9867554,-0.0149216773,535.9867554,0.09939018637,
535.0091553,-0.01442180667,535.0091553,0.09991490096,
533.9937134,-0.01380126085,533.9937134,0.1005193889,
533.015686,-0.0133571336,533.015686,0.1016931832,
531.9997559,-0.01274396293,531.9997559,0.1027062014,
530.9836426,-0.01202242263,530.9836426,0.1033922955,
530.0050049,-0.01139520947,530.0050049,0.1040761843,
528.9884033,-0.01099551003,528.9884033,0.1051368564,
528.0092163,-0.01062368415,528.0092163,0.1061475649,
526.9921875,-0.01006036531,526.9921875,0.106955573,
526.0126343,-0.009586668573,526.0126343,0.1079709306,
524.9950562,-0.009053844959,524.9950562,0.1090534478,
524.0150757,-0.008583870716,524.0150757,0.1099264249,
522.9971924,-0.008218609728,522.9971924,0.1109117642,
522.0167236,-0.007743661292,522.0167236,0.1118758991,
520.998291,-0.007270179223,520.998291,0.1129408404,
520.0174561,-0.006861974485,520.0174561,0.1139717847,
518.9985352,-0.006560949609,518.9985352,0.1150385067,
518.0172119,-0.006291914731,518.0172119,0.116318576,
516.9979858,-0.005839833058,516.9979858,0.1172012761,
516.0161743,-0.005571680143,516.0161743,0.1181140468,
514.99646,-0.00533230789,514.99646,0.1195655391,
514.0143433,-0.005086458754,514.0143433,0.1205151007,
512.9941406,-0.004847432952,512.9941406,0.1216127351,
512.0114746,-0.004732735921,512.0114746,0.1228371635,
510.9909363,-0.004668871406,510.9909363,0.123931013,
510.0078735,-0.004408604465,510.0078735,0.124869369,
508.9868774,-0.004417367745,508.9868774,0.1262348592,
508.0033875,-0.004273285624,508.0033875,0.1275056005,
506.9819031,-0.004284974188,506.9819031,0.1286985278,
505.9980469,-0.00436181156,505.9980469,0.1299444139,
505.0139465,-0.00437477883,505.0139465,0.1309916824,
503.9917908,-0.004283538554,503.9917908,0.1322991103,
503.0072937,-0.004431717098,503.0072937,0.1338009536,
501.9847717,-0.004508733284,501.9847717,0.1350327581,
500.9998474,-0.004597621039,500.9998474,0.1363998055,
500.0147095,-0.004637934733,500.0147095,0.137648508,
498.9915161,-0.004950071685,498.9915161,0.1391923577,
498.006012,-0.005072745029,498.006012,0.1405577362,
496.9822998,-0.005248378962,496.9822998,0.1422334015,
495.9963989,-0.0055363602,495.9963989,0.1437473446,
495.0102234,-0.005709200632,495.0102234,0.1451044977,
493.9859924,-0.005912412424,493.9859924,0.1464510113,
492.9994202,-0.006006068084,492.9994202,0.1479777098,
492.0126648,-0.006274565123,492.0126648,0.1500756741,
490.9877319,-0.006605313625,490.9877319,0.1517127901,
490.0006104,-0.006524282042,490.0006104,0.1533050835,
489.0132141,-0.006626678165,489.0132141,0.1549826264,
487.9877014,-0.006884447765,487.9877014,0.157064572,
486.9998779,-0.006831142586,486.9998779,0.158911407,
486.0119324,-0.006739958655,486.0119324,0.1607202888,
484.9858093,-0.006698411889,484.9858093,0.1626639664,
483.997406,-0.006640699226,483.997406,0.1648965776,
483.0088501,-0.006469402462,483.0088501,0.1666023135,
481.9820557,-0.006354163866,481.9820557,0.168940261,
480.993103,-0.005840241909,480.993103,0.1710253805,
480.0039673,-0.005193184596,480.0039673,0.1729936004,
479.0146484,-0.004796437453,479.0146484,0.175388813,
477.98703,-0.004109206609,477.98703,0.1773296744,
476.9972839,-0.003758023027,476.9972839,0.1798383147,
476.0073242,-0.002980767516,476.0073242,0.1819510162,
475.0171814,-0.002404711675,475.0171814,0.1843995452,
473.988739,-0.001807423192,473.988739,0.1868944615,
472.9981995,-0.001212461386,472.9981995,0.1893287003,
472.0074768,-0.0005740817869,472.0074768,0.1915192604,
471.0166016,-6.093129559E-005,471.0166016,0.19409962,
469.9873352,0.000359756843,469.9873352,0.1968191117,
468.9960327,0.0009978588205,468.9960327,0.1995530277,
468.0045776,0.001305006561,468.0045776,0.2021192908,
467.0128479,0.001803877181,467.0128479,0.2048182189,
465.9828491,0.002311415039,465.9828491,0.2073724717,
464.9908142,0.002730058273,464.9908142,0.2104001343,
463.9985046,0.003131010337,463.9985046,0.2133938968,
463.006073,0.003347837599,463.006073,0.2163521349,
462.0134583,0.003658270929,462.0134583,0.2193128169,
460.9823914,0.003873089328,460.9823914,0.2220187932,
459.9893494,0.004149791785,459.9893494,0.225146845,
458.9961548,0.004363258369,458.9961548,0.2285794169,
458.0027466,0.004532516934,458.0027466,0.2316967696,
457.0092163,0.004739577416,457.0092163,0.2347227037,
456.0154419,0.004913223907,456.0154419,0.2377005517,
454.9832458,0.004973259754,454.9832458,0.24086079,
453.9891052,0.005194833968,453.9891052,0.2439976484,
452.994812,0.005247415509,452.994812,0.2475346923,
452.0002441,0.005421029404,452.0002441,0.2508213818,
451.0055542,0.00541072851,451.0055542,0.2539509237,
450.0107117,0.005473087542,450.0107117,0.25707829,
449.0156555,0.005620331969,449.0156555,0.2603039145,
447.9821167,0.005631267093,447.9821167,0.2638520598,
446.9866638,0.005704700015,446.9866638,0.2675220966,
445.9910583,0.005688150413,445.9910583,0.2710219026,
444.9952393,0.005723243579,444.9952393,0.2742856145,
443.9992981,0.005732004531,443.9992981,0.2778221071,
443.0031128,0.005815292243,443.0031128,0.2810599506,
442.0067749,0.005731191486,442.0067749,0.2848075032,
441.0102844,0.005694103893,441.0102844,0.2881607711,
440.0135803,0.00570784742,440.0135803,0.2915903032,
439.0166931,0.005580369849,439.0166931,0.2952219844,
437.9812317,0.005618181545,437.9812317,0.2988757193,
436.9840393,0.005436389241,436.9840393,0.3025847971,
435.9866333,0.00527382642,435.9866333,0.306163758,
434.9890137,0.004961686675,434.9890137,0.3097111285,
433.991272,0.00496349344,433.991272,0.3128927946,
432.9933472,0.004759650212,432.9933472,0.3164046109,
431.9952087,0.00457594078,431.9952087,0.3199121058,
430.9968872,0.004521348048,430.9968872,0.3233886957,
429.9984131,0.004335072823,429.9984131,0.326505661,
428.9997559,0.004389981739,428.9997559,0.3297961652,
428.0009155,0.004348302726,428.0009155,0.3326634467,
427.0019226,0.004147648811,427.0019226,0.3357825577,
426.0027771,0.003959783353,426.0027771,0.3388260603,
425.0034485,0.003794925753,425.0034485,0.3420282304,
424.0038757,0.003619219642,424.0038757,0.3447498679,
423.0042114,0.003389447229,423.0042114,0.3474971652,
422.0043335,0.003281426849,422.0043335,0.3503604531,
421.0042725,0.003134034807,421.0042725,0.3530870974,
420.0040894,0.002633791184,420.0040894,0.3555388451,
419.0037231,0.002432027366,419.0037231,0.3581224084,
418.0031738,0.002235301072,418.0031738,0.3604852855,
417.0024414,0.001991072204,417.0024414,0.3627054095,
416.0015564,0.001776090823,416.0015564,0.364975661,
415.0005493,0.001426015049,415.0005493,0.3673063517,
413.9992676,0.001276525203,413.9992676,0.369376868,
412.9979248,0.001092284801,412.9979248,0.3710599542,
411.9963074,0.0007660196861,411.9963074,0.3729031086,
410.9945984,0.0004730906803,410.9945984,0.374968797,
409.9927063,0.0002705926599,409.9927063,0.3765681684,
408.9906616,1.351268565E-005,408.9906616,0.3780827224,
407.9883728,-0.0001723145833,407.9883728,0.3795763552,
406.9859924,-0.0004085989494,406.9859924,0.3807287216,
405.9834595,-0.0004806434445,405.9834595,0.3817481399,
405.0192871,-0.0007675134111,405.0192871,0.3831085861,
404.016449,-0.0008280787733,404.016449,0.3841111064,
403.0133972,-0.0008568598423,403.0133972,0.3849702775,
402.0101624,-0.0008243065677,402.0101624,0.3856027722,
401.0067749,-0.0008454406052,401.0067749,0.3864717185,
400.0032349,-0.0007474091835,400.0032349,0.38707605,
398.9995422,-0.0007440497866,398.9995422,0.3877682984,
397.9956665,-0.0005721687921,397.9956665,0.3881443441,
396.9916687,-0.0004114954208,396.9916687,0.3885828257,
395.9874878,-0.0002703724313,395.9874878,0.3888134658,
394.9831238,-0.0001205083463,394.9831238,0.3895992935,
394.0172424,9.573686111E-005,394.0172424,0.3896597922,
393.0126343,0.0004677782999,393.0126343,0.3896542788,
392.007782,0.0005349781713,392.007782,0.3904845715,
391.0028076,0.000830101606,391.0028076,0.3908108175,
389.9976807,0.001200644416,389.9976807,0.3907948732,
388.9923706,0.001572698704,388.9923706,0.3907952905,
387.986908,0.001861665049,387.986908,0.3910588622,
386.9813232,0.002178191906,386.9813232,0.3913400173,
386.0142212,0.002628921065,386.0142212,0.3912978172,
385.0082703,0.003135990351,385.0082703,0.3913387954,
384.0021973,0.003574116854,384.0021973,0.3916133046,
382.9959717,0.004089399241,382.9959717,0.3913436234,
381.989563,0.004728742875,381.989563,0.3912898898,
380.9830627,0.00531931594,380.9830627,0.3913026154,
380.0150452,0.005942707881,380.0150452,0.3911463618,
379.0082092,0.006865616888,379.0082092,0.3905360699,
378.0011902,0.007371999323,378.0011902,0.3908443451,
376.9940186,0.007979363203,376.9940186,0.3906807601,
375.9867249,0.008519620635,375.9867249,0.3899816871,
375.0180359,0.009067371488,375.0180359,0.3897050917,
374.0104065,0.009684761986,374.0104065,0.389546901,
373.002655,0.01042498276,373.002655,0.3888429701,
371.994751,0.01097522303,371.994751,0.3886050582,
370.9866638,0.01155439205,370.9866638,0.3884102702,
370.0172119,0.01195985358,370.0172119,0.3880662918,
369.0088806,0.01261508185,369.0088806,0.3873691261,
368.0003357,0.01306349505,368.0003357,0.3867003322,
366.9916992,0.01344241202,366.9916992,0.3865389228,
365.9828796,0.01406669989,365.9828796,0.3859484494,
365.0127563,0.01434601564,365.0127563,0.3856804073,
364.0036316,0.01466693077,364.0036316,0.3850729465,
362.9944153,0.0152288489,362.9944153,0.3841099441,
361.9850159,0.01525139622,361.9850159,0.3848210275,
361.0142822,0.01551650558,361.0142822,0.3844162524,
360.0046082,0.01591177471,360.0046082,0.3840619624,
358.994751,0.01605900191,358.994751,0.3835513294,
357.9848328,0.01622527651,357.9848328,0.3841449916,
357.0135498,0.01646000892,357.0135498,0.3838745654,
356.0032654,0.01662783511,356.0032654,0.3839851916,
354.9928894,0.01675523445,354.9928894,0.3843849301,
353.9823303,0.01690317877,353.9823303,0.3841520846,
353.010498,0.017017629,353.010498,0.3844416142,
351.9996643,0.01723135076,351.9996643,0.3850592673,
350.988678,0.01732323132,350.988678,0.3857046664,
350.0164795,0.01747460291,350.0164795,0.3864292502,
349.0052185,0.0177099295,349.0052185,0.3876367807,
347.9938354,0.01788212359,347.9938354,0.3886260688,
346.9822693,0.0180614572,346.9822693,0.3900178075,
346.009491,0.01801984943,346.009491,0.3914063573,
344.9976807,0.01825781912,344.9976807,0.3927507102,
343.9857483,0.01821457222,343.9857483,0.3946725726,
343.0125732,0.01832518354,343.0125732,0.3963445723,
342.0003662,0.01857529022,342.0003662,0.398609221,
340.9879761,0.01861300878,340.9879761,0.4006855786,
340.0144348,0.01880637556,340.0144348,0.4029131234,
339.00177,0.01887990721,339.00177,0.4054909647,
337.9890137,0.01910106465,337.9890137,0.4084126055,
337.0150452,0.01923766173,337.0150452,0.4114160836,
336.0019836,0.01955070533,336.0019836,0.4144448042,
334.9888,0.01974142902,334.9888,0.4176077545,
334.0144653,0.0200867448,334.0144653,0.4209669232,
333.0010376,0.02027268708,333.0010376,0.4248081148,
331.9874573,0.02075666748,331.9874573,0.428460151,
331.0126953,0.0211079549,331.0126953,0.4321048856,
329.9988708,0.02165688761,329.9988708,0.4360250235,
328.9848938,0.02229304984,328.9848938,0.4400738776,
328.0097961,0.02301999182,328.0097961,0.4439687729,
326.9955139,0.02359321155,326.9955139,0.4489049315,
325.9811401,0.02452206798,325.9811401,0.4531702697,
325.0056458,0.0254014805,325.0056458,0.4572524428,
323.9910278,0.02631977759,323.9910278,0.4619806111,
323.0153198,0.02750039101,323.0153198,0.4663926065,
322.0003967,0.02863591537,322.0003967,0.4714791179,
320.9853821,0.02986000478,320.9853821,0.4755548239,
320.0092468,0.03114261478,320.0092468,0.4797372818,
318.9939575,0.03257364407,318.9939575,0.4836879671,
318.0176392,0.03403093293,318.0176392,0.4878213704,
317.0021057,0.03562983871,317.0021057,0.4921156466,
315.9864502,0.03738282993,315.9864502,0.4958843887,
315.0096741,0.03862891719,315.0096741,0.4998944104,
313.9938049,0.04043484852,313.9938049,0.5034808517,
313.0168457,0.04252984002,313.0168457,0.5073161721,
312.0006714,0.04441552237,312.0006714,0.5113103986,
310.9843445,0.04622974619,310.9843445,0.5149115324,
310.007019,0.04812942818,310.007019,0.5184472799,
308.990509,0.04998485371,308.990509,0.5223210454,
308.0129395,0.05163486674,308.0129395,0.5255471468,
306.9961548,0.05367504433,306.9961548,0.5298593044,
306.0183411,0.05582842603,306.0183411,0.533729136,
305.0013428,0.05772884935,305.0013428,0.5378671885,
303.9841614,0.0597156398,303.9841614,0.5431292653,
303.0060425,0.06156013161,303.0060425,0.5488721728,
301.9886475,0.06364329904,301.9886475,0.5552523136,
301.0102539,0.06536954641,301.0102539,0.5622166991,
299.9926147,0.06715545803,299.9926147,0.5695123076,
299.0140076,0.06885691732,299.0140076,0.5777984858,
297.9961548,0.07050645351,297.9961548,0.5890756249,
297.0172729,0.07208330929,297.0172729,0.6015468836,
295.999176,0.0736406967,295.999176,0.6195796728,
294.9809265,0.07492041588,294.9809265,0.6423307657,
294.00177,0.07636391371,294.00177,0.6725068688,
292.9833069,0.0774949789,292.9833069,0.7185770869,
292.0038757,0.07799554616,292.0038757,0.7838563919,
290.9851685,0.0780313313,290.9851685,0.8500795364,
290.0055542,0.07863082737,290.0055542,0.9141158462,
288.9866333,0.07982707024,288.9866333,0.9826455712,
288.0067749,0.08070730418,288.0067749,1.052421927,
286.9875793,0.08160828054,286.9875793,1.123479009,
286.0075378,0.08221320808,286.0075378,1.190305591,
284.9881592,0.08296941966,284.9881592,1.253278613,
284.0078735,0.08358189464,284.0078735,1.30381906,
282.9882202,0.08411397785,282.9882202,1.3377316,
282.0077209,0.08473344147,282.0077209,1.352414489,
280.987915,0.08512577415,280.987915,1.366706491,
280.0071716,0.08578330278,280.0071716,1.381991386,
278.9870911,0.08646849543,278.9870911,1.398285985,
278.0061646,0.08716589957,278.0061646,1.408922195,
276.9858704,0.08804253489,276.9858704,1.405253887,
276.0046997,0.08899710327,276.0046997,1.390874267,
274.9841919,0.09006806463,274.9841919,1.365568161,
274.0028687,0.09125099331,274.0028687,1.33544147,
272.9821167,0.09269955009,272.9821167,1.299679041,
272.0005493,0.09387296438,272.0005493,1.264335394,
271.0188904,0.09502790868,271.0188904,1.238245249,
269.9978333,0.09654998779,269.9978333,1.201960921,
269.0159302,0.0987053737,269.0159302,1.170650244,
267.9946594,0.1021113619,267.9946594,1.132758021,
267.0126038,0.1064507067,267.0126038,1.094726205,
265.9911194,0.1115869582,265.9911194,1.062951088,
265.0088196,0.1186675429,265.0088196,1.03016293,
263.9871216,0.127376914,263.9871216,0.992141068,
263.0046387,0.1373793781,263.0046387,0.9579374194,
261.9827271,0.1490581334,261.9827271,0.9284844398,
261,0.1623264551,261,0.9049754143,
260.0172729,0.1745602787,260.0172729,0.8900550008,
258.9950256,0.1922978163,258.9950256,0.8719625473,
258.0120544,0.2148628533,258.0120544,0.8479568362,
256.989624,0.2367570549,256.989624,0.8257015347,
256.0064392,0.2631985843,256.0064392,0.8049191236,
254.9838257,0.2926954627,254.9838257,0.7927133441,
254.0004272,0.3273783922,254.0004272,0.7834305763,
253.016983,0.3705178201,253.016983,0.7760317922,
251.9940491,0.4058920145,251.9940491,0.7743099332,
251.0103607,0.4479383826,251.0103607,0.7716032267,
249.9872284,0.5044369102,249.9872284,0.7709037066,
249.0033875,0.5611589551,249.0033875,0.7814357877,
248.0194092,0.6222703457,248.0194092,0.8028367162,
246.9959717,0.6778861284,246.9959717,0.8244966269,
246.0118561,0.7323364019,246.0118561,0.8543332219,
244.9882355,0.8216962814,244.9882355,0.9014132023,
244.003891,0.9133874774,244.003891,0.9751825333,
243.0194855,1.009523511,243.0194855,1.068445802,
241.9955597,1.087212563,241.9955597,1.166151881,
241.0109253,1.179342747,241.0109253,1.294518948,
239.9868317,1.287394762,239.9868317,1.466449857,
239.0020599,1.410220742,239.0020599,1.689042807,
238.0171356,1.533522367,238.0171356,1.798228741,
236.9927826,1.658169866,236.9927826,1.980047464,
236.0077362,1.769026041,236.0077362,1.980716944,
234.9831238,1.918866038,234.9831238,2.008499861,
233.9978638,2.0601542,233.9978638,1.821077704,
233.012558,2.205857277,233.012558,1.743280053,
231.9877167,2.379175186,231.9877167,1.441094518,
231.0021973,2.546135426,231.0021973,1.423073173,
230.0165863,2.738048792,230.0165863,1.40788877,

Baseline 100%T,
Baseline 100%T
Collection Time: 3/23/2026 4:08:17 PM
Operator Name  :
Scan Version 5.1.0.1016
Parameter List :
Instrument  Cary 60
Instrument Version  2.00
Start (nm)  800.0
Stop (nm)  230.0
X Mode  Nanometers
Y Mode  Abs
UV-Vis Scan Rate (nm/min)  600.000
UV-Vis Data Interval (nm)  1.00
UV-Vis Ave. Time (sec)  0.1000
Beam Mode  Dual Beam
Baseline Correction  On
Baseline Type  Baseline correction
Baseline File Name
Baseline Std Ref File Name
Cycle Mode  Off
Method Log     :
Method Name    :
Date/Time stamp: 3/23/2026 3:49:45 PM
Method Modifications:
UVVIS SAT Changed: 3/23/2026 3:50:19 PM, Old:0.0125, New:0.1000
Common SAT Changed: 3/23/2026 3:50:19 PM, Old:0.0125, New:0.1000
X Stop nm Changed: 3/23/2026 3:50:31 PM, Old:  200.0, New:  230.0
Common Interval nm Changed: 3/23/2026 3:50:31 PM, Old:     5.00, New:     1.00
Baseline Correction Changed: 3/23/2026 3:50:31 PM, Old:0, New:1
Storage Changed: 3/23/2026 3:50:31 PM, Old:1, New:0
End Method Modifications
<Current Wavelength> , 235.0

TigE 200,
TigE 200
Collection Time: 3/23/2026 4:16:00 PM
Operator Name  :
Scan Version 5.1.0.1016
Parameter List :
Instrument  Cary 60
Instrument Version  2.00
Start (nm)  800.0
Stop (nm)  230.0
X Mode  Nanometers
Y Mode  Abs
UV-Vis Scan Rate (nm/min)  600.000
UV-Vis Data Interval (nm)  1.00
UV-Vis Ave. Time (sec)  0.1000
Beam Mode  Dual Beam
Baseline Correction  On
Baseline Type  Baseline correction
Baseline File Name
Baseline Std Ref File Name
Cycle Mode  Off
Method Log     :
Method Name    :
Date/Time stamp: 3/23/2026 3:49:45 PM
Method Modifications:
UVVIS SAT Changed: 3/23/2026 3:50:19 PM, Old:0.0125, New:0.1000
Common SAT Changed: 3/23/2026 3:50:19 PM, Old:0.0125, New:0.1000
X Stop nm Changed: 3/23/2026 3:50:31 PM, Old:  200.0, New:  230.0
Common Interval nm Changed: 3/23/2026 3:50:31 PM, Old:     5.00, New:     1.00
Baseline Correction Changed: 3/23/2026 3:50:31 PM, Old:0, New:1
Storage Changed: 3/23/2026 3:50:31 PM, Old:1, New:0
End Method Modifications
<Current Wavelength> , 233.0

