Baseline 100%T,,100x,,200x,,
Wavelength (nm),Abs,Wavelength (nm),Abs,Wavelength (nm),Abs,
800.000061,-0.0006224736571,800.000061,0.09378679842,800.000061,0.02379449643,
798.994751,-0.0004523546086,798.994751,0.09311595559,798.994751,0.02397032641,
797.9890747,-0.0006654323661,797.9890747,0.09369768947,797.9890747,0.02404933423,
796.9829102,-0.0006423768355,796.9829102,0.0926586017,796.9829102,0.02468566969,
796.0111084,-0.0002619387524,796.0111084,0.09406746924,796.0111084,0.02457326278,
795.0042114,-0.0005170490476,795.0042114,0.09531906247,795.0042114,0.02507338859,
793.9968872,-0.0002915851946,793.9968872,0.09461247176,793.9968872,0.0250683967,
792.9891357,-4.131203968E-005,792.9891357,0.09554366767,792.9891357,0.025131559,
792.0157471,-0.0005063448916,792.0157471,0.09624473006,792.0157471,0.0253611654,
791.0072632,0.0002832330647,791.0072632,0.09515812248,791.0072632,0.02502109297,
789.9984131,-0.0002379821526,789.9984131,0.09651464969,789.9984131,0.02549680881,
788.9890137,-0.000112020025,788.9890137,0.0966380015,788.9890137,0.02638642304,
788.0140991,8.812477608E-005,788.0140991,0.09738420695,788.0140991,0.02553194761,
787.0040894,-0.0001119165026,787.0040894,0.09812637419,787.0040894,0.02668000013,
785.9935303,0.0001528058638,785.9935303,0.09783155471,785.9935303,0.02634865791,
784.982666,-9.043615864E-005,784.982666,0.09828270972,784.982666,0.02659679763,
784.0062256,0.0001378646557,784.0062256,0.09868387133,784.0062256,0.0267274864,
782.9945068,0.0003511815739,782.9945068,0.09857302904,782.9945068,0.02672448568,
782.017395,0.0001600047544,782.017395,0.09929709136,782.017395,0.02688272297,
781.0048828,0.0006363807479,781.0048828,0.09849981964,781.0048828,0.02675402351,
779.9920654,0.0003601972712,779.9920654,0.09992157668,779.9920654,0.0266450718,
779.0137939,0.000332762138,779.0137939,0.09980742633,779.0137939,0.02765598707,
778.0001221,0.000499394373,778.0001221,0.1003886387,778.0001221,0.0271575097,
776.986145,0.0004455966118,776.986145,0.1004860178,776.986145,0.02757858299,
776.0066528,0.0004501054063,776.0066528,0.1011396945,776.0066528,0.02752375044,
774.9918823,0.0004579570668,774.9918823,0.1014539972,774.9918823,0.02756230906,
774.0117798,0.0002621486492,774.0117798,0.1019565314,774.0117798,0.02799067646,
772.9961548,0.0003233584284,772.9961548,0.1017643511,772.9961548,0.02798943408,
772.0151978,0.0006408914924,772.0151978,0.100895226,772.0151978,0.02749231085,
770.9989014,0.0004561431415,770.9989014,0.1017465144,770.9989014,0.02818373591,
770.0172729,-5.078530012E-005,770.0172729,0.1030483246,770.0172729,0.02870584838,
769.0001221,0.0002193354157,769.0001221,0.1027127281,769.0001221,0.02802977338,
767.982666,0.0004975025076,767.982666,0.1029290482,767.982666,0.02838939987,
766.9998779,-0.0002254600258,766.9998779,0.1035765558,766.9998779,0.02895210125,
766.0167847,-0.0004832808918,766.0167847,0.1038753688,766.0167847,0.0292378366,
764.9981079,-0.000940195343,764.9981079,0.1046710238,764.9981079,0.02907159925,
764.0142822,-0.0002988283231,764.0142822,0.1033236533,764.0142822,0.02907611057,
762.994873,-0.0001598940726,762.994873,0.1035218835,762.994873,0.0292445384,
762.0102539,-0.0005378361093,762.0102539,0.1049300134,762.0102539,0.0294285994,
760.9901733,-0.0008324709488,760.9901733,0.104981795,760.9901733,0.02979900688,
760.0047607,-0.0009723783587,760.0047607,0.105397284,760.0047607,0.02991077863,
758.9838867,-0.001080068061,758.9838867,0.105262816,758.9838867,0.02958768606,
757.9978027,-0.00112700928,757.9978027,0.1057686806,757.9978027,0.02940909751,
757.0113525,-0.001233060379,757.0113525,0.1059975997,757.0113525,0.03020902351,
755.9893188,-0.001701718662,755.9893188,0.1067351848,755.9893188,0.03071768582,
755.0021973,-0.0018535126,755.0021973,0.1068536937,755.0021973,0.03061056696,
754.0147095,-0.002045808593,754.0147095,0.10714937,754.0147095,0.03032403626,
752.9915161,-0.002687226748,752.9915161,0.07257895917,752.9915161,0.03077042103,
752.0032959,-0.002949915593,752.0032959,0.06805310398,752.0032959,0.03121648543,
751.0147095,-0.003156478051,751.0147095,0.0680084154,751.0147095,0.03116833977,
749.9904175,-0.003636004403,749.9904175,0.06864193827,749.9904175,0.0315749459,
749.0010986,-0.003964099102,749.0010986,0.06903871894,749.0010986,0.03167019039,
748.0114746,-0.004276259337,748.0114746,0.06930392981,748.0114746,0.03183762357,
746.986084,-0.005048950203,746.986084,0.06999251246,746.986084,0.03249242902,
745.9957275,-0.00538687082,745.9957275,0.0701302439,745.9957275,0.03234532475,
745.0050049,-0.005670775194,745.0050049,0.07025870681,745.0050049,0.03249951452,
744.013855,-0.006278290413,744.013855,0.07105863094,744.013855,0.03268777952,
742.9870605,-0.006490314845,742.9870605,0.070877783,742.9870605,0.03235829249,
741.9952393,-0.00706515694,741.9952393,0.07111979276,741.9952393,0.03317957371,
741.0031128,-0.007560791913,741.0031128,0.07176911831,741.0031128,0.03317250311,
740.0105591,-0.00815931987,740.0105591,0.07203747332,740.0105591,0.03333788738,
738.9822998,-0.008812122978,738.9822998,0.07253135741,738.9822998,0.03349810466,
737.9890747,-0.009143986739,737.9890747,0.07270579785,737.9890747,0.03352931142,
736.9954834,-0.00972454343,736.9954834,0.07296670228,736.9954834,0.03376312181,
736.0016479,-0.01046188641,736.0016479,0.07349381596,736.0016479,0.03423490375,
735.0073242,-0.0111289015,735.0073242,0.07353955507,735.0073242,0.03400030732,
734.0127563,-0.01197785325,734.0127563,0.07446141541,734.0127563,0.03442944214,
732.9822998,-0.01260070596,732.9822998,0.0744677484,732.9822998,0.0345813185,
731.9869995,-0.01317962725,731.9869995,0.0747892186,731.9869995,0.03460761532,
730.991333,-0.01392572187,730.991333,0.07530514896,730.991333,0.03485232964,
729.9952393,-0.01450638566,729.9952393,0.07554104179,729.9952393,0.03466982394,
728.9989624,-0.01534241997,728.9989624,0.07593150437,728.9989624,0.03520058468,
728.0022583,-0.01590951532,728.0022583,0.07621410489,728.0022583,0.03538946062,
727.0053101,-0.01657978259,727.0053101,0.0769476369,727.0053101,0.03558403999,
726.0078735,-0.01648558863,726.0078735,0.07690644264,726.0078735,0.03526108339,
725.0101929,-0.01680541784,725.0101929,0.07712465525,725.0101929,0.03566752374,
724.012085,-0.01720005646,724.012085,0.0778273344,724.012085,0.03597253188,
723.0137329,-0.01723021083,723.0137329,0.07813150436,723.0137329,0.03608579189,
722.0150146,-0.01709698886,722.0150146,0.07843591273,722.0150146,0.03616064787,
721.0159302,-0.01701868698,721.0159302,0.0786922276,721.0159302,0.03639855608,
720.0164795,-0.01713884622,720.0164795,0.07922887802,720.0164795,0.03693876043,
719.0166626,-0.01672372594,719.0166626,0.07941370457,719.0166626,0.03663673252,
718.0166016,-0.0164040383,718.0166016,0.07967565954,718.0166016,0.03681324795,
717.0161133,-0.01604350097,717.0161133,0.08020057529,717.0161133,0.03693382815,
716.0154419,-0.0155323334,716.0154419,0.08034962416,716.0154419,0.03717881441,
715.0142822,-0.01509352401,715.0142822,0.08083762228,715.0142822,0.03731450438,
714.0128784,-0.01422900241,714.0128784,0.08077841252,714.0128784,0.03730953857,
713.0110474,-0.01368012559,713.0110474,0.08134502918,713.0110474,0.03758304566,
712.0089111,-0.01310945768,712.0089111,0.08187353611,712.0089111,0.03783833981,
711.0064697,-0.01237021014,711.0064697,0.08220113069,711.0064697,0.03787194937,
710.0036621,-0.01161982212,710.0036621,0.08254306018,710.0036621,0.0382730104,
709.0005493,-0.010852281,709.0005493,0.08268764615,709.0005493,0.03828177601,
707.9970093,-0.009889905341,707.9970093,0.08278000355,707.9970093,0.03830976412,
706.9932861,-0.009207247756,706.9932861,0.08342166245,706.9932861,0.0384083651,
705.9890747,-0.008089961484,705.9890747,0.08338170499,705.9890747,0.0386968255,
704.9846802,-0.007535504643,704.9846802,0.0840004459,704.9846802,0.03892604634,
704.0157471,-0.006594503298,704.0157471,0.08410719037,704.0157471,0.03891792148,
703.0106201,-0.006138499826,703.0106201,0.08459125459,703.0106201,0.03928982839,
702.005127,-0.005174358375,702.005127,0.08473479748,702.005127,0.03913864866,
700.9993286,-0.004455545917,700.9993286,0.08503468335,700.9993286,0.03920473903,
699.9932251,-0.003822227009,699.9932251,0.08540034294,699.9932251,0.03954295069,
698.9868164,-0.002727821004,698.9868164,0.08540396392,698.9868164,0.03946002573,
698.0159912,-0.002001491608,698.0159912,0.08589764684,698.0159912,0.03964075446,
697.0089111,-0.001276526484,697.0089111,0.08586730063,697.0089111,0.03974751383,
696.0014648,-0.0007960401126,696.0014648,0.08630628884,696.0014648,0.03975142911,
694.9937744,-0.0002439326199,694.9937744,0.08649916947,694.9937744,0.03996179253,
693.9856567,0.000329679373,693.9856567,0.08669109643,693.9856567,0.03966693208,
693.0132446,0.0007571511669,693.0132446,0.08690672368,693.0132446,0.04006386176,
692.0045166,0.001028786995,692.0045166,0.0873792991,692.0045166,0.04016763344,
690.9954834,0.001304487349,690.9954834,0.08769704401,690.9954834,0.04078866169,
689.986145,0.001852046233,689.986145,0.08779500425,689.986145,0.0406572856,
689.0124512,0.002198146889,689.0124512,0.08822179586,689.0124512,0.04058440402,
688.0024414,0.003067865502,688.0024414,0.08780954778,688.0024414,0.04044692218,
686.9921265,0.003125091782,686.9921265,0.08871307969,686.9921265,0.04097594693,
686.0175781,0.003329108004,686.0175781,0.08882819861,686.0175781,0.04127400741,
685.0065918,0.004001372959,685.0065918,0.08925174177,685.0065918,0.04087289423,
683.9952393,0.004182696342,683.9952393,0.08929745853,683.9952393,0.04116337001,
682.9836426,0.004560977686,682.9836426,0.08925686032,682.9836426,0.04106206447,
682.0078735,0.004790899809,682.0078735,0.08970202506,682.0078735,0.04138617963,
680.9956055,0.005346150603,680.9956055,0.08977035433,680.9956055,0.04135844857,
679.9830933,0.005500691943,679.9830933,0.09031794965,679.9830933,0.04171084985,
679.0062866,0.005657779984,679.0062866,0.09043750912,679.0062866,0.04154270142,
677.993103,0.00585957896,677.993103,0.09073073417,677.993103,0.04174139723,
677.0157471,0.006004697178,677.0157471,0.09119273722,677.0157471,0.04210586101,
676.0018921,0.006370174233,676.0018921,0.09129200131,676.0018921,0.04198146984,
674.987793,0.006613172591,674.987793,0.09153856337,674.987793,0.04216584563,
674.0095215,0.006832534913,674.0095215,0.09189845622,674.0095215,0.04227990657,
672.994751,0.007091342472,672.994751,0.09200162441,672.994751,0.04230093583,
672.0159302,0.007079423405,672.0159302,0.0928555131,672.0159302,0.0425183624,
671.0005493,0.007422501687,671.0005493,0.09256629646,671.0005493,0.0426225476,
669.9848022,0.007855487056,669.9848022,0.09266424179,669.9848022,0.04259082302,
669.0050659,0.007682478055,669.0050659,0.09352232516,669.0050659,0.04324384406,
667.9887085,0.007541723549,667.9887085,0.09380093217,667.9887085,0.0432343483,
667.0083618,0.007359335199,667.0083618,0.09380250424,667.0083618,0.04317941889,
665.991394,0.00676763989,665.991394,0.094222866,665.991394,0.04348405823,
665.010437,0.006768428721,665.010437,0.09467919916,665.010437,0.04355714098,
663.9929199,0.006695551798,663.9929199,0.09487880021,663.9929199,0.04348689318,
663.0113525,0.006719843019,663.0113525,0.09502974898,663.0113525,0.04383778945,
661.9931641,0.006473342422,661.9931641,0.09533266723,661.9931641,0.04398425668,
661.0111084,0.006451508962,661.0111084,0.09570839256,661.0111084,0.04392926022,
659.9923096,0.006567100994,659.9923096,0.09590685368,659.9923096,0.04403690994,
659.0095215,0.006659170613,659.0095215,0.09632761031,659.0095215,0.0444900766,
657.9901123,0.006570937578,657.9901123,0.09670160711,657.9901123,0.04421763122,
657.0068359,0.006335737649,657.0068359,0.09750242531,657.0068359,0.04467340186,
655.9867554,0.006430359092,655.9867554,0.09739146382,655.9867554,0.04478587955,
655.0028687,0.006275906693,655.0028687,0.09785690904,655.0028687,0.04497820139,
653.9822998,0.006157714408,653.9822998,0.09835366905,653.9822998,0.0451165773,
652.9978027,0.006333820056,652.9978027,0.09851855785,652.9978027,0.04509472474,
652.0130005,0.006273254286,652.0130005,0.09897894412,652.0130005,0.045402091,
650.9915161,0.006290982012,650.9915161,0.09925388545,650.9915161,0.04563516378,
650.0061646,0.006126261316,650.0061646,0.09990310669,650.0061646,0.04587532952,
648.9839478,0.006170028355,648.9839478,0.1001929119,648.9839478,0.04597079754,
647.9981079,0.006390138529,647.9981079,0.1002545059,647.9981079,0.04606110603,
647.0118408,0.00608556997,647.0118408,0.1011095643,647.0118408,0.04654756933,
645.9888306,0.006181948818,645.9888306,0.101174131,645.9888306,0.04670261964,
645.0020752,0.006175673567,645.0020752,0.1016117632,645.0020752,0.04678766057,
644.0149536,0.006315670442,644.0149536,0.1022456139,644.0149536,0.04677924141,
642.9910278,0.006323103327,642.9910278,0.1027984843,642.9910278,0.04712086916,
642.003418,0.006252612453,642.003418,0.1028803289,642.003418,0.04713428393,
641.0154419,0.006306582596,641.0154419,0.1035562158,641.0154419,0.04745906591,
639.9906006,0.006348897237,639.9906006,0.1036042869,639.9906006,0.04758226499,
639.0021362,0.006432145834,639.0021362,0.1041110605,639.0021362,0.04748121276,
638.0134277,0.006298125722,638.0134277,0.1044975594,638.0134277,0.0479115136,
636.9876709,0.006361532025,636.9876709,0.1047917306,636.9876709,0.0479038842,
635.9983521,0.006262854207,635.9983521,0.1053370386,635.9983521,0.04823739827,
635.008667,0.006116337143,635.008667,0.105954513,635.008667,0.04852708057,
633.9821167,0.006459417287,633.9821167,0.1060850397,633.9821167,0.04856329411,
632.9919434,0.006434168667,632.9919434,0.1066207141,632.9919434,0.04872022569,
632.0014648,0.006354439538,632.0014648,0.1068591923,632.0014648,0.04900721833,
631.0106812,0.006159131881,631.0106812,0.1073747799,631.0106812,0.04932139814,
629.9830322,0.00622669328,629.9830322,0.1077655181,629.9830322,0.04940611124,
628.9916382,0.006219077855,628.9916382,0.1083504781,628.9916382,0.0496327281,
628.000061,0.006282761227,628.000061,0.1083871573,628.000061,0.04970557243,
627.0081787,0.006284100935,627.0081787,0.1089491397,627.0081787,0.04993208498,
626.0160522,0.006464987062,626.0160522,0.109457992,626.0160522,0.05009528995,
624.9868774,0.00633135112,624.9868774,0.1098239794,624.9868774,0.05022639036,
623.9941406,0.006333110854,623.9941406,0.1102055535,623.9941406,0.05040182918,
623.0012207,0.006262775511,623.0012207,0.1105956808,623.0012207,0.0505251959,
622.0079346,0.006101583131,622.0079346,0.1112116873,622.0079346,0.05101779476,
621.0144653,0.006284941453,621.0144653,0.1112918258,621.0144653,0.05096876994,
619.9838257,0.00616509188,619.9838257,0.1117521971,619.9838257,0.0510667637,
618.9897461,0.006095886696,618.9897461,0.1121265888,618.9897461,0.05132693425,
617.9954224,0.006125237327,617.9954224,0.1125207916,617.9954224,0.05146738142,
617.0007324,0.006063702982,617.0007324,0.1128765792,617.0007324,0.05165411159,
616.0058594,0.006105547305,616.0058594,0.1131159663,616.0058594,0.05160778388,
615.0106812,0.005901613738,615.0106812,0.1137418151,615.0106812,0.05197146535,
614.0151978,0.006045774557,614.0151978,0.1138515845,614.0151978,0.05199527368,
612.9827271,0.005836018361,612.9827271,0.1141002253,612.9827271,0.05247777328,
611.9866943,0.005727545358,611.9866943,0.1147676855,611.9866943,0.05255550891,
610.9904175,0.005730430596,610.9904175,0.115004465,610.9904175,0.05262253433,
609.9939575,0.005826153792,609.9939575,0.1153941005,609.9939575,0.05264059454,
608.9971313,0.005973386578,608.9971313,0.1157096475,608.9971313,0.05280277506,
608.0001831,0.005755349528,608.0001831,0.1162906289,608.0001831,0.05309166014,
607.0028076,0.005472615827,607.0028076,0.1166113615,607.0028076,0.05323446169,
606.005249,0.005456415936,606.005249,0.1168152019,606.005249,0.05322381109,
605.0073853,0.005612753332,605.0073853,0.1170910373,605.0073853,0.05329225957,
604.0092773,0.005739296321,604.0092773,0.1174403057,604.0092773,0.0535338819,
603.0108643,0.005796036217,603.0108643,0.1175732762,603.0108643,0.05355783552,
602.012207,0.005469286814,602.012207,0.1183240041,602.012207,0.05375530943,
601.0133057,0.005231564399,601.0133057,0.1185799167,601.0133057,0.05409513786,
600.0140991,0.005122665782,600.0140991,0.1188125908,600.0140991,0.05409314483,
599.0147095,0.004854688421,599.0147095,0.1194324344,599.0147095,0.05427252874,
598.0149536,0.004458628595,598.0149536,0.1198654249,598.0149536,0.05461097509,
597.0150757,0.004935896955,597.0150757,0.1199494228,597.0150757,0.05471954122,
596.0147705,0.004956318997,596.0147705,0.1201843023,596.0147705,0.05465077981,
595.0143433,0.004573298618,595.0143433,0.1209576949,595.0143433,0.05489189923,
594.0136108,0.00459624175,594.0136108,0.1212774366,594.0136108,0.05494198576,
593.0125122,0.004449161235,593.0125122,0.1214571893,593.0125122,0.05523394048,
592.0112915,0.003872097004,592.0112915,0.1222667396,592.0112915,0.05562700704,
591.0097656,0.003845927771,591.0097656,0.1225566939,591.0097656,0.05555227771,
590.0080566,0.003823468229,590.0080566,0.1229057238,590.0080566,0.0559480153,
589.0059204,0.004006127827,589.0059204,0.1231895387,589.0059204,0.0559823215,
588.0036011,0.003609405365,588.0036011,0.1237611771,588.0036011,0.05613550171,
587.0010986,0.003543763654,587.0010986,0.1243126094,587.0010986,0.05630686507,
585.99823,0.00329311192,585.99823,0.124841623,585.99823,0.05664751679,
584.9951782,0.003100583795,584.9951782,0.1252890974,584.9951782,0.05683035031,
583.9918213,0.002853705315,583.9918213,0.125986591,583.9918213,0.05715408176,
582.9882813,0.002650537295,582.9882813,0.126745671,582.9882813,0.05728115141,
581.984375,0.002360212849,581.984375,0.127015397,581.984375,0.05764482915,
581.0174561,0.002308500232,581.0174561,0.1274822354,581.0174561,0.05785866082,
580.0131226,0.002118384931,580.0131226,0.1281396598,580.0131226,0.05797650293,
579.0085449,0.001953184837,579.0085449,0.1288573444,579.0085449,0.05827222764,
578.0036621,0.001796183176,578.0036621,0.1292470992,578.0036621,0.05829688534,
576.9985962,0.001546381856,576.9985962,0.1298879981,576.9985962,0.05867946148,
575.9931641,0.001429365366,575.9931641,0.1304330826,575.9931641,0.05897231027,
574.9876099,0.001545394654,574.9876099,0.1309574991,574.9876099,0.05891891196,
573.9816895,0.001195894205,573.9816895,0.1316141337,573.9816895,0.0593181178,
573.0128174,0.0008316577296,573.0128174,0.1325547248,573.0128174,0.05951006711,
572.0064697,0.0008610696532,572.0064697,0.1331023127,572.0064697,0.05973126367,
570.999939,0.0004948850255,570.999939,0.1340683997,570.999939,0.06031965837,
569.992981,0.0002364550164,569.992981,0.1349904835,569.992981,0.06052091345,
568.9859619,-6.036188279E-005,568.9859619,0.1357684135,568.9859619,0.06086209044,
568.0158691,-0.0007191377226,568.0158691,0.1367351115,568.0158691,0.0615648441,
567.0083008,-0.0007618285017,567.0083008,0.1376984119,567.0083008,0.06185221672,
566.0004272,-0.0007526808186,566.0004272,0.1383329332,566.0004272,0.06208981201,
564.9923096,-0.0009267118876,564.9923096,0.1391065866,564.9923096,0.06222165376,
563.9839478,-0.001489974326,563.9839478,0.1403083652,563.9839478,0.06277753413,
563.0126953,-0.001672941959,563.0126953,0.1410589665,563.0126953,0.06303479522,
562.0039063,-0.002148132306,562.0039063,0.1421988457,562.0039063,0.06373229623,
560.994873,-0.002270106226,560.994873,0.1432276368,560.994873,0.06415515393,
559.9854736,-0.002629544586,559.9854736,0.1442119181,559.9854736,0.0646308437,
559.0133057,-0.002718457486,559.0133057,0.1450685561,559.0133057,0.06486605108,
558.003479,-0.003111965954,558.003479,0.1461611837,558.003479,0.06546313316,
556.9934692,-0.003406760748,556.9934692,0.1473498493,556.9934692,0.06603512168,
555.9830933,-0.003547484754,555.9830933,0.1482803673,555.9830933,0.06634009629,
555.0100098,-0.003952504601,555.0100098,0.1496283859,555.0100098,0.06705932319,
553.9992065,-0.003927057609,553.9992065,0.1506827772,553.9992065,0.06747933477,
552.9882813,-0.003721477464,552.9882813,0.1515696943,552.9882813,0.06794320792,
552.0144043,-0.003833003808,552.0144043,0.1526811719,552.0144043,0.06837134063,
551.0029297,-0.004056893289,551.0029297,0.154006049,551.0029297,0.06896337122,
549.9911499,-0.004147103988,549.9911499,0.1554580182,549.9911499,0.06973231584,
549.0166626,-0.004162539262,549.0166626,0.1567943543,549.0166626,0.07029181719,
548.0045166,-0.004154745024,548.0045166,0.157874018,548.0045166,0.07086123526,
546.9920654,-0.003593646456,546.9920654,0.158988148,546.9920654,0.07127993554,
546.0169067,-0.003379483707,546.0169067,0.1602639705,546.0169067,0.07174719125,
545.0039063,-0.003436501371,545.0039063,0.1617564708,545.0039063,0.07253041118,
543.9907837,-0.00322149042,543.9907837,0.1632453203,543.9907837,0.07326629013,
543.0148926,-0.003001951147,543.0148926,0.1647806615,543.0148926,0.07395412773,
542.0012817,-0.002045808593,542.0012817,0.1659832895,542.0012817,0.07441265136,
540.9873657,-0.001157939201,540.9873657,0.16708076,540.9873657,0.07480978966,
540.0108032,-0.0009611171554,540.0108032,0.168442294,540.0108032,0.07544808835,
538.99646,-0.000988959684,538.99646,0.1702025235,538.99646,0.07630635798,
537.9819336,-0.0007779010339,537.9819336,0.1719634831,537.9819336,0.07720288634,
537.0046997,0.0004334697151,537.0046997,0.1732744724,537.0046997,0.07775934041,
535.9897461,0.0007339952863,535.9897461,0.1749007851,535.9897461,0.07848057151,
535.0120239,0.0005855209311,535.0120239,0.1767568886,535.0120239,0.07938815653,
533.996521,0.001900714589,533.996521,0.1779105365,533.996521,0.07982259244,
533.0184326,0.002899046289,533.0184326,0.1793293953,533.0184326,0.08047724515,
532.0025024,0.002848441945,532.0025024,0.1814672798,532.0025024,0.08159209788,
530.9863281,0.003208298469,530.9863281,0.1830977648,530.9863281,0.08237085491,
530.0075073,0.003631905653,530.0075073,0.1850330681,530.0075073,0.08331844956,
528.9908447,0.005532702897,528.9908447,0.1860390604,528.9908447,0.08345479518,
528.0116577,0.005971391685,528.0116577,0.1875775009,528.0116577,0.08415815234,
526.9945679,0.006053649355,526.9945679,0.1895962805,526.9945679,0.08516258746,
526.0149536,0.006803136319,526.0149536,0.1913193911,526.0149536,0.08593796939,
524.9973755,0.007172549143,524.9973755,0.1933414489,524.9973755,0.08704923093,
524.0172729,0.007572462782,524.0172729,0.1951490045,524.0172729,0.08784763515,
522.9992676,0.00794055406,522.9992676,0.1969880313,522.9992676,0.08867802471,
522.0187378,0.008396461606,522.0187378,0.1987822205,522.0187378,0.08950924128,
521.0002441,0.008661353029,521.0002441,0.2008405328,521.0002441,0.09034621716,
519.9815674,0.008922680281,519.9815674,0.2030323893,519.9815674,0.09153731912,
519.0004272,0.009870777838,519.0004272,0.2049120665,519.0004272,0.09235014021,
517.9813232,0.01038911007,517.9813232,0.2067874968,517.9813232,0.09309597313,
516.9997559,0.01049838215,516.9997559,0.2089886814,516.9997559,0.09407788515,
516.0178833,0.01050063595,516.0178833,0.2109294534,516.0178833,0.09508274496,
514.9981079,0.01070536207,514.9981079,0.213279888,514.9981079,0.09603468329,
514.0158691,0.01084918901,514.0158691,0.2155146003,514.0158691,0.09710953385,
512.9956055,0.01125781704,512.9956055,0.2174617201,512.9956055,0.09800085425,
512.0129395,0.01158608124,512.0129395,0.2191892117,512.0129395,0.09883666039,
510.9922791,0.011858752,510.9922791,0.2217878252,510.9922791,0.1000016108,
510.0091858,0.0118698189,510.0091858,0.2237363756,510.0091858,0.1008418426,
508.9880066,0.01195815019,508.9880066,0.2261599302,508.9880066,0.1019661203,
508.0045776,0.01191070955,508.0045776,0.2287003696,508.0045776,0.1031701267,
506.9829712,0.01194905024,506.9829712,0.2310523391,506.9829712,0.1042816043,
505.9990234,0.01195674017,505.9990234,0.2334127724,505.9990234,0.1053357869,
505.0148926,0.01218257193,505.0148926,0.2353120446,505.0148926,0.105993107,
503.9927063,0.01214381214,503.9927063,0.2377429754,503.9927063,0.1073519737,
503.0081787,0.01182095148,503.0081787,0.2405121028,503.0081787,0.1086907312,
501.9855652,0.01192717906,501.9855652,0.2429766953,501.9855652,0.109800376,
501.0005188,0.01181959454,501.0005188,0.2458232194,501.0005188,0.1111130491,
500.0153809,0.01163013652,500.0153809,0.2482648641,500.0153809,0.1122203618,
498.9920959,0.01155976206,498.9920959,0.2506008446,498.9920959,0.1134697497,
498.0064392,0.01158390101,498.0064392,0.2532690167,498.0064392,0.1144468337,
496.9827576,0.01162864733,496.9827576,0.2562878132,496.9827576,0.1158296093,
495.9967651,0.01123712305,495.9967651,0.2592444718,495.9967651,0.1171386987,
495.0105591,0.01068063453,495.0105591,0.2621238232,495.0105591,0.1187119037,
493.9862671,0.01013309881,493.9862671,0.2651448548,493.9862671,0.1200424433,
492.9995728,0.01019197982,492.9995728,0.2683087289,492.9995728,0.1214288399,
492.0127869,0.0111527089,492.0127869,0.270750165,492.0127869,0.1224582642,
490.9877319,0.0103010172,490.9877319,0.2749328613,490.9877319,0.1242678761,
490.0005188,0.009763013572,490.0005188,0.2785682976,490.0005188,0.1260622889,
489.013092,0.01011791639,489.013092,0.2814048231,489.013092,0.1274314076,
487.9874878,0.01084658783,487.9874878,0.2847743332,487.9874878,0.1287953258,
486.9996643,0.01024983451,486.9996643,0.2887265682,486.9996643,0.1306895763,
486.0116577,0.009548358619,486.0116577,0.2926484346,486.0116577,0.1325918883,
484.9854431,0.01107386127,484.9854431,0.2958285809,484.9854431,0.1340144426,
483.9970093,0.01207710709,483.9970093,0.2992046773,483.9970093,0.1353467107,
483.0083923,0.01158594899,483.0083923,0.3032864928,483.0083923,0.1373681575,
481.9815369,0.01199468505,481.9815369,0.3073353767,481.9815369,0.1390653402,
480.9925232,0.01217306778,480.9925232,0.3116711378,480.9925232,0.1411882192,
480.0032959,0.0126470346,480.0032959,0.3159365356,480.0032959,0.1431351304,
479.0137939,0.01338938996,479.0137939,0.3198409677,479.0137939,0.1450335383,
477.986145,0.01392813772,477.986145,0.324167341,477.986145,0.1469709277,
476.9962769,0.01465673,476.9962769,0.3283076882,476.9962769,0.1488582045,
476.0063171,0.01508083008,476.0063171,0.3328389823,476.0063171,0.1510653496,
475.0161133,0.01563034952,475.0161133,0.3373169899,475.0161133,0.1530299038,
473.9876099,0.01646229438,473.9876099,0.3425355852,473.9876099,0.155251056,
472.9970398,0.01696290448,472.9970398,0.3468417525,472.9970398,0.1573131233,
472.0062561,0.01749443635,472.0062561,0.3514712155,472.0062561,0.1595549136,
471.0152283,0.01809033379,471.0152283,0.3558995128,471.0152283,0.1616215706,
469.9859924,0.01847331226,469.9859924,0.3612543643,469.9859924,0.1640139669,
468.9946289,0.01901494712,468.9946289,0.3663478792,468.9946289,0.1664114594,
468.0029907,0.01955265366,468.0029907,0.3713794351,468.0029907,0.1688969433,
467.0112915,0.01993931085,467.0112915,0.3769205511,467.0112915,0.1712715775,
465.9812012,0.02047119103,465.9812012,0.3819712996,465.9812012,0.173535645,
464.9889832,0.02081149258,464.9889832,0.3874638975,464.9889832,0.1761349291,
463.9967041,0.02105431445,463.9967041,0.3934822679,463.9967041,0.1789779216,
463.0041809,0.02117856219,463.0041809,0.3997158706,463.0041809,0.1816827357,
462.0114441,0.02125760727,462.0114441,0.4053636789,462.0114441,0.1844559908,
461.0185852,0.02219700627,461.0185852,0.4104173183,461.0185852,0.1866206378,
459.9873047,0.02271461114,459.9873047,0.415934056,459.9873047,0.1893732548,
458.9940186,0.02264451794,458.9940186,0.4220308363,458.9940186,0.1923532784,
458.0005493,0.02261651121,458.0005493,0.4285728037,458.0005493,0.1952926964,
457.0069275,0.02264830843,457.0069275,0.4347680509,457.0069275,0.1981008053,
456.013031,0.02300022915,456.013031,0.4401823878,456.013031,0.2004643679,
455.019043,0.02277511358,455.019043,0.4463603199,455.019043,0.2034898996,
453.9866028,0.02301041037,453.9866028,0.4528621733,453.9866028,0.2063634694,
452.9921875,0.02329977416,452.9921875,0.4589723945,452.9921875,0.2094209641,
451.9976501,0.02324056439,451.9976501,0.4658977091,451.9976501,0.2125750631,
451.0028687,0.0233270321,451.0028687,0.4718307555,451.0028687,0.2152916044,
450.0079346,0.02328660898,450.0079346,0.4779638648,450.0079346,0.2180505246,
449.0127869,0.02334224619,449.0127869,0.4840195775,449.0127869,0.2211349458,
448.0174561,0.0235373769,448.0174561,0.4901687205,448.0174561,0.2236886322,
446.9836731,0.02372472174,446.9836731,0.497118026,446.9836731,0.2269673049,
445.9879456,0.02365495637,445.9879456,0.5038148165,445.9879456,0.2301223278,
444.9920654,0.02361559495,444.9920654,0.5100809932,444.9920654,0.2330479622,
443.9960632,0.02368166298,443.9960632,0.5162016749,443.9960632,0.2359720618,
442.9998474,0.02342239767,442.9998474,0.5230830908,442.9998474,0.2389722019,
442.003418,0.02375772037,442.003418,0.5292293429,442.003418,0.2418829501,
441.0068054,0.02364186384,441.0068054,0.5364521742,441.0068054,0.2452557087,
440.0100708,0.02381418459,440.0100708,0.5424107313,440.0100708,0.2479089946,
439.013092,0.02382118441,439.013092,0.5489695072,439.013092,0.2509777546,
438.0159607,0.02371110581,438.0159607,0.5556259751,438.0159607,0.254027158,
437.0187073,0.02356093377,437.0187073,0.5625476837,437.0187073,0.2571787536,
435.9828491,0.02325031348,435.9828491,0.5697569251,435.9828491,0.2604673803,
434.9851685,0.02317775786,434.9851685,0.5761709809,434.9851685,0.2634672821,
433.9872742,0.02322199382,433.9872742,0.5820662379,433.9872742,0.2662059069,
432.9892883,0.02319362201,432.9892883,0.588357985,432.9892883,0.2690798044,
431.9910889,0.02283336036,431.9910889,0.5945349932,431.9910889,0.2718994617,
430.9927063,0.02284500934,430.9927063,0.600536406,430.9927063,0.2747517824,
429.9941406,0.02272083052,429.9941406,0.6068347692,429.9941406,0.2775354981,
428.9954529,0.02258158103,428.9954529,0.6121625304,428.9954529,0.279892832,
427.9965515,0.02263565548,427.9965515,0.6172740459,427.9965515,0.2822109461,
426.9974365,0.0225130897,426.9974365,0.6233674288,426.9974365,0.2852398455,
425.99823,0.02245063335,425.99823,0.6287180185,425.99823,0.2876510322,
424.9988403,0.02254397981,424.9988403,0.6342427135,424.9988403,0.2902711332,
423.9992065,0.02234542556,423.9992065,0.6392334104,423.9992065,0.292565614,
422.9994507,0.02215047553,422.9994507,0.644007206,422.9994507,0.2945079207,
421.9995117,0.02250229381,421.9995117,0.6484905481,421.9995117,0.2966071963,
420.9993896,0.02213451453,420.9993896,0.6527400613,420.9993896,0.2984511852,
419.9990845,0.02187981829,419.9990845,0.6575089097,419.9990845,0.3008001745,
418.9986572,0.02176040411,418.9986572,0.6617715359,418.9986572,0.3028613627,
417.9980469,0.02154275775,417.9980469,0.6660671234,417.9980469,0.304654181,
416.9972229,0.02125825919,416.9972229,0.6698535085,416.9972229,0.3064112961,
415.9962769,0.02116355859,415.9962769,0.6733268499,415.9962769,0.3080393076,
414.9951782,0.02094284259,414.9951782,0.6775456667,414.9951782,0.3099840879,
413.9938965,0.02087996155,413.9938965,0.6806297302,413.9938965,0.3114541471,
412.9923706,0.02050828747,412.9923706,0.6842176318,412.9923706,0.3129885197,
411.9907532,0.02027716301,411.9907532,0.6871650815,411.9907532,0.3144042194,
410.9889832,0.020288473,410.9889832,0.6902495027,410.9889832,0.3156759441,
409.9869995,0.020218499,409.9869995,0.692840755,409.9869995,0.3169808686,
408.9848633,0.01982354559,408.9848633,0.6957128048,408.9848633,0.3182181418,
407.9825439,0.01969128847,407.9825439,0.6978375912,407.9825439,0.3193497658,
407.0186157,0.01953594759,407.0186157,0.6997576356,407.0186157,0.3202409446,
406.0160217,0.01940144971,406.0160217,0.7019059062,406.0160217,0.3210774362,
405.0131836,0.0198102165,405.0131836,0.7038037777,405.0131836,0.3218583763,
404.0102234,0.01971195638,404.0102234,0.7055075765,404.0102234,0.3226215243,
403.0071411,0.01982040331,403.0071411,0.7069401145,403.0071411,0.323492229,
402.0038452,0.01966805011,402.0038452,0.7082934976,402.0038452,0.3243030608,
401.0003662,0.01978827082,401.0003662,0.7095226645,401.0003662,0.3246053159,
399.9967957,0.020092085,399.9967957,0.7106754184,399.9967957,0.3250648975,
398.992981,0.02015062422,398.992981,0.7117074728,398.992981,0.3257618546,
397.9890137,0.02039548941,397.9890137,0.7124469876,397.9890137,0.3260817826,
396.9849243,0.02038857155,396.9849243,0.7133739591,396.9849243,0.3262728453,
395.9806824,0.0207378231,395.9806824,0.7140107751,395.9806824,0.3267865181,
395.0148926,0.02148444019,395.0148926,0.7145162225,395.0148926,0.3270880282,
394.0103149,0.02127111889,394.0103149,0.7154040337,394.0103149,0.3271942437,
393.0055847,0.0220743455,393.0055847,0.7156475186,393.0055847,0.3274941742,
392.0007019,0.02269232832,392.0007019,0.7162089348,392.0007019,0.3278129697,
390.995636,0.02268960141,390.995636,0.7165721059,390.995636,0.3278818429,
389.9904175,0.02294654585,389.9904175,0.7170138359,389.9904175,0.3281938434,
388.9850464,0.02309134603,388.9850464,0.7176037431,388.9850464,0.3285606205,
388.018158,0.02413774282,388.018158,0.7178853154,388.018158,0.3285090923,
387.0124817,0.02440302074,387.0124817,0.7182961702,387.0124817,0.3286559582,
386.0066528,0.02488784678,386.0066528,0.7183582187,386.0066528,0.3287652731,
385.0006409,0.02544715255,385.0006409,0.7184964418,385.0006409,0.3288165033,
383.9945068,0.02645618841,383.9945068,0.7187647223,383.9945068,0.3287421167,
382.9881592,0.02684295736,382.9881592,0.7188308239,382.9881592,0.3288878798,
381.9816895,0.02749749646,381.9816895,0.7186965346,381.9816895,0.328895092,
381.0137939,0.02795517258,381.0137939,0.7188211679,381.0137939,0.3288400769,
380.0070496,0.02844442427,380.0070496,0.7184835076,380.0070496,0.3286146522,
379.0001221,0.0294813998,379.0001221,0.7176856399,379.0001221,0.3283049166,
377.993042,0.03068970889,377.993042,0.7178376317,377.993042,0.328345418,
376.9857788,0.03127000481,376.9857788,0.7170283794,376.9857788,0.3282219768,
376.0171204,0.03185093775,376.0171204,0.7166855931,376.0171204,0.3278045356,
375.009613,0.03237909824,375.009613,0.7156977057,375.009613,0.3273717165,
374.0019226,0.03274901584,374.0019226,0.7153357863,374.0019226,0.3269117773,
372.9940796,0.03345588595,372.9940796,0.7144936323,372.9940796,0.3269071281,
371.9860535,0.03410118073,371.9860535,0.7139027715,371.9860535,0.3266730905,
371.0167236,0.03489317,371.0167236,0.7126238346,371.0167236,0.3260275424,
370.0084229,0.03514146805,370.0084229,0.712331295,370.0084229,0.3256633878,
369,0.03560719267,369,0.7108181119,369,0.3251476288,
367.9914246,0.03645677119,367.9914246,0.7101266384,367.9914246,0.3248555958,
366.9826355,0.03660609201,366.9826355,0.7090075612,366.9826355,0.3245576024,
366.0125732,0.03697714955,366.0125732,0.7083163857,366.0125732,0.3240518272,
365.00354,0.03751070797,365.00354,0.7082713246,365.00354,0.3238493502,
363.9943542,0.03701390699,363.9943542,0.7070547938,363.9943542,0.323343277,
362.9850159,0.03871638328,362.9850159,0.7058270574,362.9850159,0.3226720989,
362.0143433,0.03912060335,362.0143433,0.7058600783,362.0143433,0.3227820098,
361.0047607,0.03955454752,361.0047607,0.7050992846,361.0047607,0.3225749433,
359.9949646,0.03901934996,359.9949646,0.705301702,359.9949646,0.3225700259,
358.9850769,0.03928999975,358.9850769,0.7041683197,358.9850769,0.3221029639,
358.0138855,0.04043143988,358.0138855,0.7044141293,358.0138855,0.3220763505,
357.0036621,0.04026818648,357.0036621,0.7042436004,357.0036621,0.322085619,
355.9933167,0.04050196335,355.9933167,0.7046413422,355.9933167,0.3222207427,
354.9828491,0.04082995281,354.9828491,0.70473212,354.9828491,0.3221451938,
354.0110779,0.04128280282,354.0110779,0.7053191066,354.0110779,0.3225462735,
353.0003052,0.04108738899,353.0003052,0.7058865428,353.0003052,0.3228146434,
351.9893799,0.04129749164,351.9893799,0.7068973184,351.9893799,0.3229422271,
351.0172424,0.04158648476,351.0172424,0.7079308033,351.0172424,0.3238810599,
350.0060425,0.04180982709,350.0060425,0.7096652389,350.0060425,0.3245088458,
348.9947205,0.04175832495,348.9947205,0.7122892141,348.9947205,0.3258266449,
347.9832458,0.04182695597,347.9832458,0.7146816254,347.9832458,0.3266652226,
347.010498,0.04213849083,347.010498,0.717184186,347.010498,0.3279584348,
345.9987488,0.04269434139,345.9987488,0.7197656035,345.9987488,0.3292376101,
344.9868469,0.04327109456,344.9868469,0.7228120565,344.9868469,0.3304028809,
344.0137634,0.04313078895,344.0137634,0.7264031768,344.0137634,0.3320937157,
343.0015869,0.04307032749,343.0015869,0.7299848795,343.0015869,0.3334461451,
341.9892883,0.04358839244,341.9892883,0.734796226,341.9892883,0.3358798027,
341.0157776,0.04344674945,341.0157776,0.7385433316,341.0157776,0.3373771906,
340.0031738,0.04370757565,340.0031738,0.7440750599,340.0031738,0.3402019143,
338.990448,0.04432919249,338.990448,0.7490077615,338.990448,0.3422208726,
338.016571,0.0443473123,338.016571,0.7545534968,338.016571,0.3448521495,
337.0035706,0.04449859634,337.0035706,0.7608889937,337.0035706,0.3477006853,
335.990448,0.04488676786,335.990448,0.7669656873,335.990448,0.3503424525,
335.0161438,0.04507197812,335.0161438,0.7727642655,335.0161438,0.3530117571,
334.0027161,0.04580778256,334.0027161,0.7790818214,334.0027161,0.3561222553,
332.9891968,0.04626885056,332.9891968,0.7860683799,332.9891968,0.359333694,
332.0145569,0.0467652902,332.0145569,0.7933730483,332.0145569,0.3627052903,
331.0007324,0.04698037729,331.0007324,0.8011751175,331.0007324,0.3662477732,
329.9868164,0.04782408476,329.9868164,0.808647275,329.9868164,0.3695845008,
329.0117493,0.04829600826,329.0117493,0.8161657453,329.0117493,0.3728684187,
327.9975281,0.04869656637,327.9975281,0.8247005343,327.9975281,0.377050817,
326.9831848,0.05024783686,326.9831848,0.8328191042,326.9831848,0.3806653023,
326.007782,0.05044113472,326.007782,0.8417254686,326.007782,0.3845832348,
324.9931946,0.05228131637,324.9931946,0.8490512371,324.9931946,0.3881061673,
324.0174866,0.05372035876,324.0174866,0.8566487432,324.0174866,0.3916130364,
323.0026245,0.05464664102,323.0026245,0.8647589087,323.0026245,0.3953455389,
321.9876709,0.05585880578,321.9876709,0.87317276,321.9876709,0.3991217911,
321.0116272,0.05678281933,321.0116272,0.8813390136,321.0116272,0.4028125107,
319.9963684,0.05901830271,319.9963684,0.8878860474,319.9963684,0.4060407579,
318.9810181,0.06024944037,318.9810181,0.8963987231,318.9810181,0.4093855619,
318.0045776,0.06193746999,318.0045776,0.9021314383,318.0045776,0.4123560786,
316.9889526,0.0630710423,316.9889526,0.9101483226,316.9889526,0.4160688818,
316.0122681,0.06551532447,316.0122681,0.9161406159,316.0122681,0.4189232588,
314.9963684,0.06764984131,314.9963684,0.9222757816,314.9963684,0.4218918383,
314.0194397,0.06894064695,314.0194397,0.9285866022,314.0194397,0.4246491194,
313.0033569,0.07103984803,313.0033569,0.9347479939,313.0033569,0.4271272123,
311.9870605,0.07319897413,311.9870605,0.9410853386,311.9870605,0.4304758608,
311.0097656,0.07547870278,311.0097656,0.9461393356,311.0097656,0.4327487648,
309.9932861,0.07755918801,309.9932861,0.9525890946,309.9932861,0.4356386662,
309.0157776,0.08023501933,309.0157776,0.9574815035,309.0157776,0.4380758405,
307.9990234,0.08127186447,307.9990234,0.9639056921,307.9990234,0.441054374,
306.9821777,0.08403430879,306.9821777,0.9700805545,306.9821777,0.4437452555,
306.0042725,0.08617115766,306.0042725,0.9766783714,306.0042725,0.4467372298,
304.9871521,0.08814393729,304.9871521,0.9830056429,304.9871521,0.4501629472,
304.0090332,0.08989406377,304.0090332,0.9910436869,304.0090332,0.453549087,
302.9916992,0.09212689847,302.9916992,0.9995706677,302.9916992,0.4572408795,
302.0133667,0.09439609945,302.0133667,1.009132385,302.0133667,0.4618030488,
300.995697,0.09624269605,300.995697,1.020082831,300.995697,0.4664008021,
300.0171509,0.09764828533,300.0171509,1.030822635,300.0171509,0.4714688063,
298.9992981,0.09930532426,298.9992981,1.044539928,298.9992981,0.4777106047,
297.9813538,0.1014448777,297.9813538,1.059115767,297.9813538,0.4843363166,
297.0024109,0.1033715382,297.0024109,1.080028296,297.0024109,0.494136095,
295.9842224,0.1047750637,295.9842224,1.107673168,295.9842224,0.5060358644,
295.0050659,0.1067826152,295.0050659,1.139021754,295.0050659,0.5208410621,
293.9866333,0.1079217717,293.9866333,1.18699646,293.9866333,0.5433251262,
293.0072327,0.1082197726,293.0072327,1.254283905,293.0072327,0.5734180212,
291.9885864,0.1082958728,291.9885864,1.341607094,291.9885864,0.6123846769,
291.0089722,0.1095452607,291.0089722,1.421739101,291.0089722,0.6493963003,
289.9900818,0.1101665199,289.9900818,1.501530051,289.9900818,0.6851608753,
289.0102539,0.1109632328,289.0102539,1.57566309,289.0102539,0.7195186615,
287.9911194,0.111317575,287.9911194,1.660473585,287.9911194,0.757642746,
287.0110779,0.1128626838,287.0110779,1.746183157,287.0110779,0.7978839278,
285.9917297,0.1131939963,285.9917297,1.825981021,285.9917297,0.8355423808,
285.0114441,0.1144348681,285.0114441,1.886329412,285.0114441,0.8630580306,
283.9918518,0.11357034,283.9918518,1.935537696,283.9918518,0.8836224079,
283.0113831,0.1150542945,283.0113831,1.959471822,283.0113831,0.8948323727,
281.9915466,0.1157248467,281.9915466,1.971474409,281.9915466,0.9017336965,
281.0108337,0.1160480678,281.0108337,1.98630321,281.0108337,0.9080872536,
279.9908142,0.1166091561,279.9908142,2.003921986,279.9908142,0.9162812233,
279.0099182,0.1169993207,279.0099182,2.015842915,279.0099182,0.9222405553,
277.9896545,0.1179728657,277.9896545,2.019782305,277.9896545,0.9231082201,
277.0084839,0.1189522073,277.0084839,2.006868601,277.0084839,0.9168171287,
275.9880066,0.120258458,275.9880066,1.977640271,275.9880066,0.9057896733,
275.0066833,0.1209015399,275.0066833,1.945452571,275.0066833,0.8888155818,
273.9859924,0.1222243086,273.9859924,1.906112313,273.9859924,0.8707129359,
273.0043945,0.1222601905,273.0043945,1.862360954,273.0043945,0.8511108756,
271.9835205,0.1265398115,271.9835205,1.824311018,271.9835205,0.8326207995,
271.0017395,0.126726374,271.0017395,1.781605482,271.0017395,0.8137418032,
269.9805908,0.1285611391,269.9805908,1.74475944,269.9805908,0.7957203984,
268.9985962,0.1312922537,268.9985962,1.703621149,268.9985962,0.7784787416,
268.0165405,0.1349855065,268.0165405,1.656720281,268.0165405,0.7559003234,
266.9950867,0.141394794,266.9950867,1.612919688,266.9950867,0.7364851236,
266.0128174,0.1473123729,266.0128174,1.574543118,266.0128174,0.7194871306,
264.9911194,0.1552179605,264.9911194,1.533822894,264.9911194,0.7000171542,
264.008667,0.1646266729,264.008667,1.49169445,264.008667,0.6813086271,
262.9867554,0.1763792634,262.9867554,1.454377055,262.9867554,0.6638843417,
262.0040894,0.1894692779,262.0040894,1.424895167,262.0040894,0.6496189237,
260.9819946,0.2042761594,260.9819946,1.402081609,260.9819946,0.6399512887,
259.9991455,0.2197714895,259.9991455,1.385404229,259.9991455,0.6327731013,
259.0161438,0.2399068922,259.0161438,1.362149715,259.0161438,0.6221346855,
257.9937439,0.2655538023,257.9937439,1.333153009,257.9937439,0.6083802581,
257.0105591,0.2916564941,257.0105591,1.307668567,257.0105591,0.5980457664,
255.9879761,0.3217351139,255.9879761,1.290723205,255.9879761,0.5893779993,
255.0045929,0.3545483649,255.0045929,1.282424808,255.0045929,0.5848492384,
253.9817505,0.3933934271,253.9817505,1.278252363,253.9817505,0.5829364657,
252.9981995,0.4335244894,252.9981995,1.274786472,252.9981995,0.5829526782,
252.0145111,0.4781691432,252.0145111,1.272191644,252.0145111,0.5797233582,
250.9914246,0.5287463069,250.9914246,1.273213148,250.9914246,0.5797280073,
250.0075684,0.5846477151,250.0075684,1.282397628,250.0075684,0.586329639,
248.9842529,0.6448711157,248.9842529,1.304553628,248.9842529,0.594740808,
248.0001831,0.7141606808,248.0001831,1.334628105,248.0001831,0.6090895534,
247.0160675,0.7680116296,247.0160675,1.356823087,247.0160675,0.6230629683,
245.9924622,0.845059514,245.9924622,1.403998017,245.9924622,0.6434976459,
245.0081329,0.9361656904,245.0081329,1.476035953,245.0081329,0.6642105579,
243.984314,1.038978696,243.984314,1.586633325,243.984314,0.7235630155,
242.9998169,1.133715391,242.9998169,1.712943316,242.9998169,0.7831510901,
242.0151825,1.226794958,242.0151825,1.826829076,242.0151825,0.8471118212,
240.9910736,1.325960994,240.9910736,1.963774204,240.9910736,0.9370027184,
240.0063019,1.44721806,240.0063019,2.14605546,240.0063019,1.038520813,
238.9820251,1.578866601,238.9820251,2.304990053,238.9820251,1.159670234,
237.9970398,1.720085621,237.9970398,2.532279491,237.9970398,1.309936881,
237.0119781,1.836196065,237.0119781,2.390019178,237.0119781,1.4335953,
235.9874115,1.976299047,235.9874115,2.01770997,235.9874115,1.417066932,
235.0021362,2.124358416,235.0021362,1.871162772,235.0021362,1.561573982,
234.0167999,2.266554356,234.0167999,1.963782191,234.0167999,1.381589413,
232.9919891,2.455480099,232.9919891,1.590419292,232.9919891,1.129971385,
232.0064545,2.628157616,232.0064545,1.829027772,232.0064545,1.203352332,
230.9814148,2.800541401,230.9814148,1.367693305,230.9814148,0.8099463582,
229.9957275,2.982337713,229.9957275,1.204531908,229.9957275,0.9527789354,

Baseline 100%T,
Baseline 100%T
Collection Time: 6/17/2026 12:19:27 PM
Operator Name  :
Scan Version 5.1.0.1016
Parameter List :
Instrument  Cary 60
Instrument Version  2.00
Start (nm)  800.0
Stop (nm)  230.0
X Mode  Nanometers
Y Mode  Abs
UV-Vis Scan Rate (nm/min)  600.000
UV-Vis Data Interval (nm)  1.00
UV-Vis Ave. Time (sec)  0.1000
Beam Mode  Dual Beam
Baseline Correction  On
Baseline Type  Baseline correction
Baseline File Name
Baseline Std Ref File Name
Cycle Mode  Off
Method Log     :
Method Name    :
Date/Time stamp: 6/17/2026 12:08:53 PM
Method Modifications:
UVVIS SAT Changed: 6/17/2026 12:09:53 PM, Old:0.0125, New:0.1000
Common SAT Changed: 6/17/2026 12:09:53 PM, Old:0.0125, New:0.1000
X Stop nm Changed: 6/17/2026 12:10:21 PM, Old:  200.0, New:  230.0
Common Interval nm Changed: 6/17/2026 12:10:21 PM, Old:     5.00, New:     1.00
Baseline Correction Changed: 6/17/2026 12:10:21 PM, Old:0, New:1
Storage Changed: 6/17/2026 12:10:21 PM, Old:1, New:0
End Method Modifications
<Current Wavelength> , 232.0

100x,
100x
Collection Time: 6/17/2026 12:21:36 PM
Operator Name  :
Scan Version 5.1.0.1016
Parameter List :
Instrument  Cary 60
Instrument Version  2.00
Start (nm)  800.0
Stop (nm)  230.0
X Mode  Nanometers
Y Mode  Abs
UV-Vis Scan Rate (nm/min)  600.000
UV-Vis Data Interval (nm)  1.00
UV-Vis Ave. Time (sec)  0.1000
Beam Mode  Dual Beam
Baseline Correction  On
Baseline Type  Baseline correction
Baseline File Name
Baseline Std Ref File Name
Cycle Mode  Off
Method Log     :
Method Name    :
Date/Time stamp: 6/17/2026 12:08:53 PM
Method Modifications:
UVVIS SAT Changed: 6/17/2026 12:09:53 PM, Old:0.0125, New:0.1000
Common SAT Changed: 6/17/2026 12:09:53 PM, Old:0.0125, New:0.1000
X Stop nm Changed: 6/17/2026 12:10:21 PM, Old:  200.0, New:  230.0
Common Interval nm Changed: 6/17/2026 12:10:21 PM, Old:     5.00, New:     1.00
Baseline Correction Changed: 6/17/2026 12:10:21 PM, Old:0, New:1
Storage Changed: 6/17/2026 12:10:21 PM, Old:1, New:0
End Method Modifications
<Current Wavelength> , 230.0

200x,
200x
Collection Time: 6/17/2026 12:23:33 PM
Operator Name  :
Scan Version 5.1.0.1016
Parameter List :
Instrument  Cary 60
Instrument Version  2.00
Start (nm)  800.0
Stop (nm)  230.0
X Mode  Nanometers
Y Mode  Abs
UV-Vis Scan Rate (nm/min)  600.000
UV-Vis Data Interval (nm)  1.00
UV-Vis Ave. Time (sec)  0.1000
Beam Mode  Dual Beam
Baseline Correction  On
Baseline Type  Baseline correction
Baseline File Name
Baseline Std Ref File Name
Cycle Mode  Off
Method Log     :
Method Name    :
Date/Time stamp: 6/17/2026 12:08:53 PM
Method Modifications:
UVVIS SAT Changed: 6/17/2026 12:09:53 PM, Old:0.0125, New:0.1000
Common SAT Changed: 6/17/2026 12:09:53 PM, Old:0.0125, New:0.1000
X Stop nm Changed: 6/17/2026 12:10:21 PM, Old:  200.0, New:  230.0
Common Interval nm Changed: 6/17/2026 12:10:21 PM, Old:     5.00, New:     1.00
Baseline Correction Changed: 6/17/2026 12:10:21 PM, Old:0, New:1
Storage Changed: 6/17/2026 12:10:21 PM, Old:1, New:0
End Method Modifications
<Current Wavelength> , 232.0

