Baseline 100%T,,CM52_frac_110-175_10x,,CM52_frac_110-175_10x1_repeat,,CM52_frac_176-240_10x,,
Wavelength (nm),Abs,Wavelength (nm),Abs,Wavelength (nm),Abs,Wavelength (nm),Abs,
799.9925537,-0.01565649919,799.9925537,3.28753049E-006,799.9925537,0.002504504751,799.9925537,-0.001296296599,
798.9872437,-0.0156903062,798.9872437,-1.67737835E-005,798.9872437,0.002156703267,798.9872437,-0.001096335356,
798.0161133,-0.01525705494,798.0161133,-0.0002157318377,798.0161133,0.002209386323,798.0161133,-0.001562407124,
797.0098877,-0.01498275157,797.0098877,-0.0003291447647,797.0098877,0.00223467662,797.0098877,-0.001624615397,
796.003418,-0.01537885051,796.003418,0.0002387860295,796.003418,0.001962987939,796.003418,-0.001594389323,
794.996521,-0.01535056625,794.996521,6.712750474E-005,794.996521,0.002579546068,794.996521,-0.001061785966,
793.9890747,-0.01485869382,793.9890747,-0.0004918136983,793.9890747,0.002313314704,793.9890747,-0.001447355142,
793.0160522,-0.01506147068,793.0160522,-0.0001520793157,793.0160522,0.0024059969,793.0160522,-0.001243746607,
792.0079346,-0.01462168433,792.0079346,-1.651493403E-005,792.0079346,0.002453738125,792.0079346,-0.001792162075,
790.9993896,-0.01483042538,790.9993896,-0.0001207153764,790.9993896,0.002794612898,790.9993896,-0.001459429273,
789.9904175,-0.01471853536,789.9904175,-0.0003868229105,789.9904175,0.002543143462,789.9904175,-0.00110113807,
789.0158081,-0.0149683468,789.0158081,0.0002578230924,789.0158081,0.003401056863,789.0158081,-0.001013494679,
788.0061035,-0.01452365983,788.0061035,-0.0006570063997,788.0061035,0.003247495275,788.0061035,-0.001546260435,
786.9960327,-0.01445525978,786.9960327,6.600972029E-006,786.9960327,0.003439670894,786.9960327,-0.001223664498,
785.9854126,-0.01429067459,785.9854126,-0.0002856870997,785.9854126,0.003241914092,785.9854126,-0.001109503792,
785.0093384,-0.01429363061,785.0093384,-0.0002869805612,785.0093384,0.003519884543,785.0093384,-0.001015560701,
783.9980469,-0.01422013436,783.9980469,-0.0004798160226,783.9980469,0.00291272765,783.9980469,-0.001231511589,
782.9863892,-0.0142114656,782.9863892,-6.626757113E-006,782.9863892,0.003303597448,782.9863892,-0.001546569983,
782.0091553,-0.01420460176,782.0091553,-0.0003484406334,782.0091553,0.003170773853,782.0091553,-0.001173274242,
780.996582,-0.01402698923,780.996582,-1.656670429E-005,780.996582,0.002812016755,780.996582,-0.001183910412,
779.9836426,-0.01383601595,779.9836426,-0.0003246440028,779.9836426,0.002540357411,779.9836426,-0.001771383453,
779.0054321,-0.01373074111,779.0054321,-0.0001415731676,779.0054321,0.002677546348,779.0054321,-0.001395029831,
777.9917603,-0.01404894423,777.9917603,-0.0001755749108,777.9917603,0.00311708753,777.9917603,-0.0009752194164,
777.0126343,-0.01416155789,777.0126343,-0.0001783694606,777.0126343,0.002637306927,777.0126343,-0.001528771711,
775.99823,-0.01412983704,775.99823,0.0001639149996,775.99823,0.00304867886,775.99823,-0.001238480909,
774.9832764,-0.0139168473,774.9832764,-0.0002886361617,774.9832764,0.00271781534,774.9832764,-0.001814641058,
774.0031128,-0.0137484977,774.0031128,-0.0006038620486,774.0031128,0.002242352348,774.0031128,-0.001587167731,
772.9874878,-0.01408884116,772.9874878,0.0002787518897,772.9874878,0.002758478979,772.9874878,-0.001570660854,
772.0065918,-0.01462969277,772.0065918,0.0003427877964,772.0065918,0.003373585409,772.0065918,-0.0009806948947,
770.9902344,-0.01387593243,770.9902344,-0.0003778225218,770.9902344,0.002893443685,770.9902344,-0.00138790824,
770.0084839,-0.01435419265,770.0084839,-7.050765271E-005,770.0084839,0.003224284388,770.0084839,-0.001256239368,
768.991333,-0.01452626288,768.991333,0.0005434792838,768.991333,0.003130801721,768.991333,-0.001322672353,
768.0089111,-0.01458488964,768.0089111,0.0001531683956,768.0089111,0.002927530091,768.0089111,-0.001518763136,
766.9910278,-0.01444173884,766.9910278,-0.0003539757454,766.9910278,0.002600040054,766.9910278,-0.00173936272,
766.0078125,-0.01456556562,766.0078125,-0.0002003629343,766.0078125,0.002775151748,766.0078125,-0.001611101674,
764.9891968,-0.01470937673,764.9891968,-0.0003250578593,764.9891968,0.002791356295,764.9891968,-0.001847687294,
764.0053101,-0.01508457307,764.0053101,-8.588115452E-005,764.0053101,0.002316671889,764.0053101,-0.001824436593,
762.9858398,-0.01488715969,762.9858398,-0.0001984482515,762.9858398,0.002778929425,762.9858398,-0.00172776042,
762.0012207,-0.01507062186,762.0012207,-0.0001172476113,762.0012207,0.002910382347,762.0012207,-0.001424908638,
761.0161743,-0.01505271904,761.0161743,8.594226529E-006,761.0161743,0.002897977829,761.0161743,-0.001786490553,
759.9956055,-0.01477308292,759.9956055,-0.0003074164852,759.9956055,0.002420938108,759.9956055,-0.002152923262,
759.0098877,-0.01524105947,759.0098877,-0.0003655630571,759.0098877,0.002530280733,759.0098877,-0.001596504124,
757.9885864,-0.01579880156,757.9885864,7.354826084E-005,757.9885864,0.002609779593,757.9885864,-0.001458190847,
757.0020752,-0.01579305902,757.0020752,-9.488759679E-005,757.0020752,0.002512940438,757.0020752,-0.001732968609,
756.0152588,-0.01613749191,756.0152588,0.0002656712895,756.0152588,0.002813032828,756.0152588,-0.001503853127,
754.9928589,-0.01624587551,754.9928589,-0.0002799441572,754.9928589,0.002472247696,754.9928589,-0.001797369448,
754.005249,-0.01608780585,754.005249,-0.0004037886392,754.005249,0.002049587201,754.005249,-0.00224528159,
753.017334,-0.0167211853,753.017334,-0.0003010529908,753.017334,0.002168436069,753.017334,-0.001663761795,
751.9938354,-0.0170751866,751.9938354,0.0002838547225,751.9938354,0.00188875501,751.9938354,-0.001613525907,
751.005249,-0.01739413291,751.005249,-2.293436228E-005,751.005249,0.002402482787,751.005249,-0.001536974451,
750.0162354,-0.01733195409,750.0162354,-2.231313192E-005,750.0162354,0.001723694033,750.0162354,-0.002089708811,
748.9915771,-0.01769892871,748.9915771,2.143411075E-005,748.9915771,0.001871622168,748.9915771,-0.001894494053,
748.0018921,-0.01792278886,748.0018921,-0.0001326712081,748.0018921,0.00134862808,748.0018921,-0.002046478447,
747.0117798,-0.01834545098,747.0117798,-0.0002224587952,747.0117798,0.001859273296,747.0117798,-0.001757152262,
745.9860229,-0.01879085414,745.9860229,-7.977322821E-005,745.9860229,0.001937089371,745.9860229,-0.001913926681,
744.9952393,-0.01907980815,744.9952393,5.084301665E-005,744.9952393,0.002003736794,744.9952393,-0.001915266854,
744.0040894,-0.01938678883,744.0040894,4.34129397E-005,744.0040894,0.00188176136,744.0040894,-0.002032050164,
743.0126343,-0.01966906339,743.0126343,2.208129263E-005,743.0126343,0.001470298041,743.0126343,-0.002084298758,
741.9854126,-0.0203277301,741.9854126,7.253853983E-005,741.9854126,0.001875027781,741.9854126,-0.002022929257,
740.9931641,-0.02044519782,740.9931641,-0.0004568540608,740.9931641,0.001579375588,740.9931641,-0.002245384501,
740.0006714,-0.02083466947,740.0006714,-0.000400736928,740.0006714,0.001713090693,740.0006714,-0.002211905085,
739.0078125,-0.02149033919,739.0078125,6.604012742E-005,739.0078125,0.00191212853,739.0078125,-0.002041531727,
738.0145874,-0.0219917912,738.0145874,-0.0001432293211,738.0145874,0.001924296725,738.0145874,-0.001705534756,
736.9854736,-0.02230414934,736.9854736,-0.0003491131356,736.9854736,0.001392020262,736.9854736,-0.002103156177,
735.9915161,-0.02306110971,735.9915161,-0.0001973615435,735.9915161,0.001668730984,735.9915161,-0.001954387175,
734.9972534,-0.02341488749,734.9972534,-0.0001316878333,734.9972534,0.001341409516,734.9972534,-0.002046014648,
734.0025635,-0.0243686866,734.0025635,1.434106343E-005,734.0025635,0.001781705185,734.0025635,-0.001872637775,
733.0076294,-0.02488990501,733.0076294,-0.0001112436439,733.0076294,0.00174201664,733.0076294,-0.001960108057,
732.0122681,-0.02578559145,732.0122681,-0.0001271332731,732.0122681,0.001843987382,732.0122681,-0.001799638034,
731.0166016,-0.02640129067,731.0166016,-0.0001517687924,731.0166016,0.00163851073,731.0166016,-0.001826705062,
729.9849854,-0.02705460042,729.9849854,-0.0002785472025,729.9849854,0.001389864832,729.9849854,-0.002125516068,
728.9886475,-0.02794006094,728.9886475,-6.983472849E-005,728.9886475,0.001596263144,728.9886475,-0.001918153372,
727.9919434,-0.02846734039,727.9919434,-0.0003715635103,727.9919434,0.001681879861,727.9919434,-0.002000512555,
726.994812,-0.02896153182,726.994812,-0.0002366885601,726.994812,0.001702045789,726.994812,-0.002098158468,
725.9974365,-0.02952864021,725.9974365,-1.092374168E-005,725.9974365,0.001908670529,725.9974365,-0.002007881878,
724.9996948,-0.02972758375,724.9996948,-0.0001719005813,724.9996948,0.001700824359,724.9996948,-0.001931812265,
724.0015869,-0.03017195128,724.0015869,6.471974484E-005,724.0015869,0.002016921993,724.0015869,-0.00153661333,
723.0031738,-0.02992798202,723.0031738,-0.0003782880667,723.0031738,0.001952196704,723.0031738,-0.002095170086,
722.0043945,-0.03000355512,722.0043945,-0.0005155494437,722.0043945,0.001906226506,722.0043945,-0.001996235223,
721.005249,-0.03024719283,721.005249,-7.713950254E-006,721.005249,0.001972011058,721.005249,-0.001734257792,
720.0057983,-0.02996456251,720.0057983,-0.0001891852153,720.0057983,0.00203824765,720.0057983,-0.001833871123,
719.0060425,-0.02996809036,719.0060425,-5.994776438E-005,719.0060425,0.002243731637,719.0060425,-0.001751789707,
718.0058594,-0.02945883758,718.0058594,-0.0002017083898,718.0058594,0.001921202638,718.0058594,-0.001812682021,
717.0054321,-0.02948641218,717.0054321,-0.0001274955575,717.0054321,0.002343712142,717.0054321,-0.001676809858,
716.0045776,-0.02902250364,716.0045776,-5.953364598E-005,716.0045776,0.002118098782,716.0045776,-0.001671085251,
715.003418,-0.02846011519,715.003418,-0.0001686919713,715.003418,0.002025998197,715.003418,-0.001778962789,
714.0019531,-0.02787850052,714.0019531,-0.0003600280907,714.0019531,0.00212345738,714.0019531,-0.001960984198,
713.0001221,-0.02739182487,713.0001221,-0.0002607487259,713.0001221,0.002233401639,713.0001221,-0.001882947516,
711.9979858,-0.02676934935,711.9979858,-0.0003008977801,711.9979858,0.002066232963,711.9979858,-0.002048951807,
710.9954834,-0.02600668743,710.9954834,-0.0002873944468,710.9954834,0.002013385063,710.9954834,-0.002038852079,
709.9926758,-0.02566731349,709.9926758,-4.747227285E-005,709.9926758,0.002251303522,709.9926758,-0.001712393365,
708.9894409,-0.02477084473,708.9894409,0.0001047472615,708.9894409,0.002307042945,708.9894409,-0.001779787824,
707.9859619,-0.02413833141,707.9859619,-0.000112951675,707.9859619,0.002176475013,707.9859619,-0.001751325675,
706.9821167,-0.02327962406,706.9821167,-0.0001339133451,706.9821167,0.002215500688,706.9821167,-0.001713166945,
706.013855,-0.02246208675,706.013855,-0.0001968440629,706.013855,0.002495314227,706.013855,-0.001905679586,
705.0093384,-0.02203972451,705.0093384,-3.856838157E-005,705.0093384,0.002474668901,705.0093384,-0.001680987189,
704.0045166,-0.02106131054,704.0045166,-0.0003889436484,704.0045166,0.002450171625,704.0045166,-0.001987989526,
702.9993286,-0.02037105523,702.9993286,0.0001188587412,702.9993286,0.00243171514,702.9993286,-0.001847790438,
701.9938354,-0.01961215772,701.9938354,-0.0001074134852,701.9938354,0.002221615054,701.9938354,-0.001727708848,
700.9880371,-0.01884013414,700.9880371,-0.0001458688203,700.9880371,0.002303503687,700.9880371,-0.001763803884,
700.0178223,-0.01812846027,700.0178223,-0.0003021394368,700.0178223,0.002335201716,700.0178223,-0.001682018628,
699.0113525,-0.01744536124,699.0113525,-0.0002961897699,699.0113525,0.00208020024,699.0113525,-0.001936090179,
698.0045166,-0.01717059687,698.0045166,6.166475214E-005,698.0045166,0.002274670405,698.0045166,-0.001641326584,
696.9974365,-0.01646340825,696.9974365,-0.0001131069512,696.9974365,0.002190679777,696.9974365,-0.001789893489,
695.9900513,-0.01610426791,695.9900513,2.844961091E-005,695.9900513,0.002387828426,695.9900513,-0.001504884916,
694.9822388,-0.015463043,694.9822388,0.0001415675506,694.9822388,0.002203428419,694.9822388,-0.001650661812,
694.0100708,-0.01498460211,694.0100708,-0.000196016088,694.0100708,0.002174679888,694.0100708,-0.002032410819,
693.0015869,-0.01459740475,693.0015869,8.727036766E-005,693.0015869,0.002186231082,693.0015869,-0.001708010095,
691.9927979,-0.01414963137,691.9927979,4.600180182E-005,691.9927979,0.001928430982,691.9927979,-0.001632919535,
690.9838257,-0.01359493472,690.9838257,-0.0001144009075,690.9838257,0.001938415458,690.9838257,-0.001854801434,
690.010498,-0.01320639532,690.010498,-0.000126926243,690.010498,0.001954926876,690.010498,-0.002197945956,
689.0007324,-0.01279237494,689.0007324,-0.0001742811437,689.0007324,0.001852852176,689.0007324,-0.00178427354,
687.9906616,-0.01252370328,687.9906616,-0.0002752359142,687.9906616,0.002015621634,687.9906616,-0.001880988711,
687.0163574,-0.01198107656,687.0163574,-0.0003054505214,687.0163574,0.001730841002,687.0163574,-0.002138807671,
686.0057373,-0.01189882588,686.0057373,-8.386972695E-006,686.0057373,0.002014477272,686.0057373,-0.00164895982,
684.9946899,-0.0114167938,684.9946899,-0.0001501644292,684.9946899,0.00172075734,684.9946899,-0.001877070987,
683.9833374,-0.01127466187,683.9833374,-5.694875654E-006,683.9833374,0.00181830395,683.9833374,-0.001788707566,
683.0078125,-0.01071971375,683.0078125,-0.000384081417,683.0078125,0.001635340741,683.0078125,-0.001879339106,
681.9959106,-0.01053106971,681.9959106,-0.0002976901305,681.9959106,0.001785422093,681.9959106,-0.001936090179,
680.9835815,-0.0101916166,680.9835815,-0.0001407968375,680.9835815,0.001806554617,680.9835815,-0.001637974055,
680.0071411,-0.009985035285,680.0071411,-0.000132619447,680.0071411,0.001792388153,680.0071411,-0.002011798322,
678.9942017,-0.009663433768,678.9942017,-0.0003513892589,678.9942017,0.001604784979,678.9942017,-0.002008603187,
678.0171509,-0.009742059745,678.0171509,7.481109151E-006,678.0171509,0.001806918532,678.0171509,-0.001627503778,
677.0036621,-0.009328724816,677.0036621,-0.0002846523421,677.0036621,0.001756493235,677.0036621,-0.00193454395,
675.9897461,-0.009202431887,675.9897461,-0.0002672162955,675.9897461,0.002016817918,675.9897461,-0.0018888755,
675.0117798,-0.009065810591,675.0117798,-0.0001034797751,675.0117798,0.001907916507,675.0117798,-0.001907844446,
673.9972534,-0.008825668134,673.9972534,-0.0001637237729,673.9972534,0.001819707686,673.9972534,-0.001731885714,
672.9824829,-0.008867164142,672.9824829,0.0001278437267,672.9824829,0.002260826994,672.9824829,-0.001485176035,
672.0036011,-0.008390741423,672.0036011,-5.20794456E-005,672.0036011,0.001815418596,672.0036011,-0.001770249102,
670.9881592,-0.008234916255,670.9881592,3.028763967E-005,670.9881592,0.001834368915,670.9881592,-0.001853976632,
670.008728,-0.008319946006,670.008728,-5.202768079E-005,670.008728,0.002105301013,670.008728,-0.001580771408,
668.9926147,-0.007917812094,668.9926147,-0.0001867529936,668.9926147,0.001856335672,668.9926147,-0.001922070631,
668.0125732,-0.00784099102,668.0125732,-0.0004054438032,668.0125732,0.00181827799,668.0125732,-0.001954954118,
666.9958496,-0.008282309398,666.9958496,-7.935912436E-005,666.9958496,0.001601849101,666.9958496,-0.001971807098,
666.0151978,-0.008678524755,666.0151978,-0.0001294623216,666.0151978,0.001783108688,666.0151978,-0.001729668351,
664.9979248,-0.008817754686,664.9979248,-0.0001281166478,664.9979248,0.001986157382,664.9979248,-0.001773445867,
664.0166016,-0.008802433498,664.0166016,-0.0001506302069,664.0166016,0.001630118,664.0166016,-0.001956551801,
662.9987183,-0.008829422295,662.9987183,-0.0003784432483,662.9987183,0.001699083252,662.9987183,-0.001999481814,
662.0169067,-0.008870562539,662.0169067,-0.0001127446449,662.0169067,0.001571529661,662.0169067,-0.00198809267,
660.9983521,-0.008978339843,660.9983521,-0.0001900649513,660.9983521,0.001858285512,660.9983521,-0.001960984198,
660.0158691,-0.009003999643,660.0158691,-0.0002123165759,660.0158691,0.001840659883,660.0158691,-0.001864389866,
658.9967651,-0.008943245746,658.9967651,-0.0002994491661,658.9967651,0.001587091829,658.9967651,-0.002172756474,
658.0137329,-0.008985946886,658.0137329,-0.0004049782874,658.0137329,0.001739859465,658.0137329,-0.002115727169,
656.9940186,-0.009305161424,656.9940186,-0.0001469556591,656.9940186,0.001941171708,656.9940186,-0.001627503778,
656.010376,-0.009403306991,656.010376,1.661910937E-005,656.010376,0.00203920994,656.010376,-0.001818610937,
654.9900513,-0.009425141849,654.9900513,-9.219603089E-005,654.9900513,0.002073567826,654.9900513,-0.001965880161,
654.0057983,-0.009522145614,654.0057983,0.0001020285854,654.0057983,0.002240062691,654.0057983,-0.001614144887,
652.9848022,-0.00918023102,652.9848022,-0.0002070901392,652.9848022,0.001692612423,652.9848022,-0.002196452115,
652.000061,-0.009622166865,652.000061,0.0001499056234,652.000061,0.001858467469,652.000061,-0.001602023374,
651.0149536,-0.009601506405,651.0149536,6.534109707E-005,651.0149536,0.00203450257,651.0149536,-0.001810929039,
649.993103,-0.009514902718,649.993103,-8.339658234E-005,649.993103,0.002007741714,649.993103,-0.001720180153,
649.0074463,-0.00956625957,649.0074463,7.059677591E-005,649.0074463,0.001971725142,649.0074463,-0.001815053518,
647.9849243,-0.009384459816,647.9849243,-0.0002186813654,647.9849243,0.001734375604,647.9849243,-0.00202828832,
646.9987183,-0.00953308586,646.9987183,-7.904855011E-005,646.9987183,0.002005609218,646.9987183,-0.001761380467,
646.012207,-0.009766409174,646.012207,0.0002997334814,646.012207,0.002014451427,646.012207,-0.001652312232,
644.9888306,-0.009382382035,644.9888306,-0.0002832554164,644.9888306,0.001529600238,644.9888306,-0.001908978447,
644.001709,-0.009360848926,644.001709,-0.0002783402742,644.001709,0.001754180063,644.001709,-0.001880112337,
643.0143433,-0.009492160752,643.0143433,-6.983472849E-005,643.0143433,0.001862496953,643.0143433,-0.001777415979,
641.9901123,-0.009339568205,641.9901123,-0.0003050883824,641.9901123,0.00163619814,641.9901123,-0.00194248138,
641.0021362,-0.009561043233,641.0021362,9.319048331E-006,641.0021362,0.001886389102,641.0021362,-0.001660203212,
640.013916,-0.009424838237,640.013916,-0.0001861319906,640.013916,0.001697238069,640.013916,-0.001792626106,
638.9887695,-0.009586920962,638.9887695,-0.0001725215989,638.9887695,0.00211986783,638.9887695,-0.001734051504,
637.9998779,-0.009363686666,637.9998779,-0.0003406292817,637.9998779,0.001815418596,637.9998779,-0.00201123138,
637.0108643,-0.009763877839,637.0108643,9.938760195E-005,637.0108643,0.002215708839,637.0108643,-0.001728121424,
635.9848022,-0.009440795518,635.9848022,-0.000121698773,635.9848022,0.001823320985,635.9848022,-0.002083783504,
634.9951782,-0.009564689361,634.9951782,-5.295946175E-005,634.9951782,0.001862470992,634.9951782,-0.001888617757,
634.005188,-0.009462629445,634.005188,-9.836657E-007,634.005188,0.001871154178,634.005188,-0.001919596572,
633.0150146,-0.009494591504,633.0150146,-0.0001571511675,633.0150146,0.001789476955,633.0150146,-0.002030349569,
631.987854,-0.009415060282,631.987854,-0.0001251147478,631.987854,0.001741990563,631.987854,-0.002019167412,
630.9970093,-0.009675130248,630.9970093,2.283202411E-005,630.9970093,0.00198873179,630.9970093,-0.001816651784,
630.0059814,-0.009436996654,630.0059814,-0.0002542293223,630.0059814,0.001933345222,630.0059814,-0.002012262121,
629.0146484,-0.00960748177,629.0146484,9.501189925E-005,629.0146484,0.002086182591,629.0146484,-0.001642925432,
627.9862671,-0.00952913519,627.9862671,-0.0001164194837,627.9862671,0.001933449181,627.9862671,-0.001783242333,
626.9943848,-0.009530857205,626.9943848,-1.786095163E-005,626.9943848,0.001934203203,626.9943848,-0.001665515359,
626.0022583,-0.009533187374,626.0022583,-3.748126619E-005,626.0022583,0.001996559324,626.0022583,-0.001678666449,
625.0097656,-0.009548027068,625.0097656,-5.860187957E-005,625.0097656,0.002030237345,625.0097656,-0.001549716806,
624.0170898,-0.009598619305,624.0170898,-0.0001021857825,624.0170898,0.001889274921,624.0170898,-0.001296348171,
622.9873047,-0.009606519714,622.9873047,-6.952414697E-005,622.9873047,0.002021707129,622.9873047,-0.001241113758,
621.9939575,-0.009692445397,621.9939575,-2.774887071E-005,621.9939575,0.001951416605,621.9939575,-0.001220102189,
621.0004883,-0.009677509777,621.0004883,2.927801688E-005,621.0004883,0.002032265998,621.0004883,-0.0009023786406,
620.0065918,-0.009583781473,620.0065918,-0.0002754428715,620.0065918,0.001971855061,620.0065918,-0.0008561881259,
619.0125122,-0.009742818773,619.0125122,-0.0001664148876,619.0125122,0.002019808628,619.0125122,-0.0005251158145,
618.0181274,-0.009723227471,618.0181274,-0.0002812893654,618.0181274,0.001923412783,618.0181274,-0.0004741790763,
616.9866333,-0.009840308689,616.9866333,-1.066488767E-005,616.9866333,0.002149835229,616.9866333,-2.914662218E-005,
615.9917603,-0.009934740141,615.9917603,-9.297244833E-005,615.9917603,0.002056739759,615.9917603,8.315368905E-005,
614.996582,-0.009841726162,614.996582,-3.856838157E-005,614.996582,0.00214419025,614.996582,7.921829092E-005,
614.0011597,-0.009840410203,614.0011597,-7.402755728E-005,614.0011597,0.001915326575,614.0011597,8.649363008E-005,
613.0053101,-0.009933576919,613.0053101,-8.318953769E-005,613.0053101,0.002077287063,613.0053101,0.0003580469638,
612.0093384,-0.009955587797,612.0093384,-0.0001930664002,612.0093384,0.002019574633,612.0093384,0.0001538416691,
611.0131226,-0.009994293563,611.0131226,-0.000118438038,611.0131226,0.002204547171,611.0131226,0.000274970138,
610.0165405,-0.009957257658,610.0165405,-9.276540368E-005,610.0165405,0.002153841546,610.0165405,7.766485214E-005,
608.9828491,-0.009907668456,608.9828491,-0.000195809087,608.9828491,0.001879057498,608.9828491,3.259165533E-005,
607.9857178,-0.01007695682,607.9857178,-1.786095163E-005,607.9857178,0.002060641069,607.9857178,1.255487587E-005,
606.9883423,-0.01001149602,606.9883423,-0.0002159905707,606.9883423,0.00202415185,606.9883423,0.0001097444838,
605.9907837,-0.01017153915,605.9907837,2.032096018E-005,605.9907837,0.002331011463,605.9907837,0.0001160881948,
604.9929199,-0.01021867152,604.9929199,7.124403055E-005,604.9929199,0.002176318783,604.9929199,-0.000112951675,
603.994751,-0.01040179003,603.994751,-8.567410259E-005,603.994751,0.002282242989,603.994751,-0.0003709427838,
602.9963379,-0.01043767668,602.9963379,-5.61689194E-005,602.9963379,0.002110919449,602.9963379,-0.0008718955214,
601.9976807,-0.01047356054,601.9976807,-0.0001539942023,601.9976807,0.002041836735,601.9976807,-0.001104029943,
600.9987793,-0.01068880036,600.9987793,-6.31054063E-005,600.9987793,0.002205353696,600.9987793,-0.001224955078,
599.9995117,-0.01066303812,599.9995117,-0.0001824577485,599.9995117,0.002044541761,599.9995117,-0.001487858943,
599.000061,-0.01069263928,599.000061,-0.0002609556832,599.000061,0.002001890447,599.000061,-0.001850935048,
598.0003052,-0.0109369522,598.0003052,-1.294279173E-005,598.0003052,0.002157301409,598.0003052,-0.001901195152,
597.0003662,-0.01102367509,597.0003662,-5.363241507E-005,597.0003662,0.002065816894,597.0003662,-0.002144783735,
596.000061,-0.01142339967,596.000061,0.0001057052723,596.000061,0.002256403444,596.000061,-0.00188186497,
594.9996338,-0.01140549779,594.9996338,-0.000118334523,594.9996338,0.002021941124,594.9996338,-0.002147308085,
593.9987793,-0.01152343675,593.9987793,-0.0001031174543,593.9987793,0.002118150936,593.9987793,-0.002271290869,
592.9978027,-0.01182416733,592.9978027,-1.351226547E-005,592.9978027,0.002032292075,592.9978027,-0.002079867525,
591.9963989,-0.01186925638,591.9963989,-0.0001974650368,591.9963989,0.00200586929,591.9963989,-0.002239100868,
590.994873,-0.01203561667,590.994873,-0.0001335510606,590.994873,0.002219455549,590.994873,-0.002191198058,
589.993103,-0.01225250028,589.993103,-0.0001806464861,589.993103,0.002126214793,589.993103,-0.002094757976,
588.9909668,-0.01236155536,588.9909668,-0.0002028468443,588.9909668,0.002058352111,588.9909668,-0.002106453525,
587.9886475,-0.01267960668,587.9886475,-7.20087919E-005,587.9886475,0.002190367784,587.9886475,-0.00213618041,
586.986084,-0.01275079977,586.986084,-0.0001176616715,586.986084,0.002213055035,586.986084,-0.002159414347,
585.9832764,-0.01298571751,585.9832764,-2.686880362E-005,585.9832764,0.002136360155,585.9832764,-0.002122991486,
585.0172729,-0.0131018227,585.0172729,-0.0001445232047,585.0172729,0.002056635683,585.0172729,-0.002352759242,
584.013916,-0.01333926059,584.013916,-7.806506619E-005,584.013916,0.002222317504,584.013916,-0.002160135424,
583.0103149,-0.01356573123,583.0103149,4.903079025E-005,583.0103149,0.002209802624,583.0103149,-0.002192743355,
582.0065308,-0.01371017471,582.0065308,-9.587104432E-005,582.0065308,0.002051590011,582.0065308,-0.002161938464,
581.0023193,-0.01387733594,581.0023193,-8.494943904E-005,581.0023193,0.002116902266,581.0023193,-0.002244560514,
579.9979858,-0.01392512023,579.9979858,-9.644040983E-005,579.9979858,0.001973051345,579.9979858,-0.002549826633,
578.9932861,-0.01417799387,578.9932861,-0.0002615765843,578.9932861,0.002037805738,578.9932861,-0.002583537484,
577.9884644,-0.01444284059,577.9884644,-0.0001417801832,577.9884644,0.002110165078,577.9884644,-0.002494648565,
576.9832764,-0.01479840279,576.9832764,-3.784363798E-005,576.9832764,0.002065348672,576.9832764,-0.002282724017,
576.0151367,-0.01484928746,576.0151367,-0.0001242866274,576.0151367,0.00200553122,576.0151367,-0.002401622478,
575.0095215,-0.01517297234,575.0095215,-0.0001592730405,575.0095215,0.002149731154,575.0095215,-0.002315683058,
574.0036621,-0.01543421391,574.0036621,-5.368417987E-005,574.0036621,0.002096248791,574.0036621,-0.002375930082,
572.9974365,-0.015705036,572.9974365,-0.000127650841,572.9974365,0.002247400349,572.9974365,-0.00237618736,
571.9910889,-0.01592907868,571.9910889,-0.0001456618047,571.9910889,0.002102231607,571.9910889,-0.00233447901,
570.9844971,-0.01631040312,570.9844971,-5.425359996E-005,570.9844971,0.002088757697,570.9844971,-0.002378041157,
570.0148926,-0.01657161117,570.0148926,5.306947787E-005,570.0148926,0.002166432794,570.0148926,-0.00236825808,
569.0077515,-0.01687115803,569.0077515,-0.0001802842307,569.0077515,0.002065504668,569.0077515,-0.002369493712,
568.0003052,-0.01717218943,568.0003052,-0.0001983447582,568.0003052,0.002236393979,568.0003052,-0.002431535162,
566.9927368,-0.01741512306,566.9927368,-0.0001545117411,566.9927368,0.001934697269,566.9927368,-0.002450531814,
565.9848633,-0.01775692962,565.9848633,-4.44698162E-005,565.9848633,0.002128608059,565.9848633,-0.002410632558,
565.0140381,-0.01814132184,565.0140381,-0.000151044238,565.0140381,0.002258250955,565.0140381,-0.002385094995,
564.0056152,-0.01840286888,564.0056152,-0.0001039973649,564.0056152,0.002217139816,564.0056152,-0.002387824003,
562.9970703,-0.01873433031,562.9970703,1.566129322E-005,562.9970703,0.00220080046,562.9970703,-0.002483838471,
561.9882202,-0.01870611496,561.9882202,-0.0003196258331,561.9882202,0.001977055799,561.9882202,-0.00273229694,
561.0164795,-0.01918458566,561.0164795,-0.0002643188345,561.0164795,0.002190783853,561.0164795,-0.00249408232,
560.0071411,-0.01953173615,560.0071411,-0.0001470074203,560.0071411,0.002129492583,560.0071411,-0.002535723848,
558.9974976,-0.01969493926,558.9974976,-0.0002287199459,558.9974976,0.002068027621,558.9974976,-0.002504737582,
557.9876709,-0.02000924945,557.9876709,-0.0001487153058,557.9876709,0.002243627328,557.9876709,-0.002472822322,
557.0150146,-0.02019115351,557.0150146,-0.0001049807979,557.0150146,0.00209094258,557.0150146,-0.002567016985,
556.0046997,-0.02047685534,556.0046997,-0.0001247006876,556.0046997,0.002121428493,556.0046997,-0.002487081569,
554.9941406,-0.02058613673,554.9941406,-8.815866022E-005,554.9941406,0.002219195245,554.9941406,-0.002569641685,
553.9832764,-0.02059151791,553.9832764,-0.0002790646104,553.9832764,0.002120960271,553.9832764,-0.002633558353,
553.0097046,-0.02081414126,553.0097046,-5.332182263E-005,553.0097046,0.002152072499,553.0097046,-0.002527900273,
551.9984741,-0.0209624581,551.9984741,-9.064320329E-005,551.9984741,0.002123561455,551.9984741,-0.002522547264,
550.9869385,-0.02109455131,550.9869385,-0.0001004259466,550.9869385,0.002279302338,550.9869385,-0.002546892967,
550.0126953,-0.02113799751,550.0126953,-0.000119887256,550.0126953,0.002343581989,550.0126953,-0.00235404633,
549.0006104,-0.02092521079,549.0006104,-0.000214438187,549.0006104,0.002131469548,549.0006104,-0.002699214965,
547.9884644,-0.02095861174,547.9884644,-6.905827468E-005,547.9884644,0.002157197567,547.9884644,-0.002666542307,
547.0134277,-0.02084932476,547.0134277,-8.283502098E-007,547.0134277,0.002187453909,547.0134277,-0.002633558353,
546.0007935,-0.02077303082,546.0007935,-5.63242138E-005,546.0007935,0.002181834308,546.0007935,-0.002489861334,
544.9877319,-0.02045937255,544.9877319,-0.0001811639813,544.9877319,0.002159096533,544.9877319,-0.002676987555,
544.012146,-0.02019298263,544.012146,-6.124188076E-005,544.012146,0.002171635861,544.012146,-0.002654090058,
542.9986572,-0.01973120496,542.9986572,-0.0001297728595,542.9986572,0.002062981715,542.9986572,-0.002723139245,
541.9850464,-0.01942936704,541.9850464,-0.0001103119866,541.9850464,0.002221250674,541.9850464,-0.002844643081,
541.008728,-0.01933628507,541.008728,-9.261012019E-005,541.008728,0.002060302999,541.008728,-0.002623729641,
539.9946289,-0.01883681305,539.9946289,-0.0002519009577,539.9946289,0.001929991064,539.9946289,-0.002825920703,
539.0178833,-0.01852115616,539.0178833,-6.93688562E-005,539.0178833,0.002094896277,539.0178833,-0.002714804374,
538.0031738,-0.01802337728,538.0031738,-0.0001124858463,538.0031738,0.002193671884,538.0031738,-0.002804008545,
536.9884033,-0.01757619157,536.9884033,-0.0001367081713,536.9884033,0.002122989157,536.9884033,-0.002763575641,
536.0109253,-0.01709743589,536.0109253,-0.0001763511827,536.0109253,0.002154153772,536.0109253,-0.002679148689,
534.9956665,-0.01625799388,534.9956665,-0.000248796423,534.9956665,0.00210870849,534.9956665,-0.002810952719,
534.0177612,-0.01579950005,534.0177612,-8.526001329E-005,534.0177612,0.002029847354,534.0177612,-0.002934437478,
533.0020142,-0.01559691783,533.0020142,-7.925560203E-005,533.0020142,0.002182666678,533.0020142,-0.002680435078,
531.9859619,-0.01495289057,531.9859619,-0.0001737118728,531.9859619,0.002150017302,531.9859619,-0.002647554968,
531.0074463,-0.01423431374,531.0074463,-0.0002155765978,531.0074463,0.00218750583,531.0074463,-0.002791457111,
529.9910278,-0.01357059833,529.9910278,-0.0002184743789,529.9910278,0.002182354452,529.9910278,-0.002900136868,
529.0119629,-0.01311453152,529.0119629,-0.000165379839,529.0119629,0.002019834705,529.0119629,-0.002939425642,
527.9951172,-0.01288938336,527.9951172,-0.0002443983103,527.9951172,0.002076792996,527.9951172,-0.0028133702,
527.015625,-0.01239848789,527.015625,-0.0001468004048,527.015625,0.002175460337,527.015625,-0.002738110488,
525.998291,-0.01190567669,525.998291,-0.0001169888201,525.998291,0.002137192525,525.998291,-0.002756579313,
525.0183716,-0.01143227518,525.0183716,-0.0002798406931,525.0183716,0.002035490936,525.0183716,-0.002884811256,
524.0006104,-0.0111240577,524.0006104,-2.350382238E-005,524.0006104,0.002145907143,524.0006104,-0.002824583557,
522.9825439,-0.01062070299,522.9825439,-0.0001881502249,522.9825439,0.002110841451,522.9825439,-0.002738264855,
522.0020142,-0.01026782114,522.0020142,-0.0001765064371,522.0020142,0.002221016679,522.0020142,-0.002897154074,
520.9835815,-0.009723125957,520.9835815,-0.0002411384921,520.9835815,0.002079211874,520.9835815,-0.002878279658,
520.0025635,-0.00936014019,520.0025635,-0.0001402792841,520.0025635,0.002168618143,520.0025635,-0.002876222366,
518.9836426,-0.008981483988,518.9836426,-0.0002183708857,518.9836426,0.00217683916,518.9836426,-0.002892062766,
518.0022583,-0.00881044846,518.0022583,-3.251155795E-005,518.0022583,0.002231606282,518.0022583,-0.002670195652,
516.9828491,-0.008393737487,516.9828491,-0.0002997595875,516.9828491,0.002040276304,516.9828491,-0.002803802723,
516.0010376,-0.008110744879,516.0010376,-0.0002070383925,516.0010376,0.002049067058,516.0010376,-0.002872673795,
514.9812012,-0.007881919853,514.9812012,-0.0002286164672,514.9812012,0.002206862671,514.9812012,-0.002850866644,
513.9989624,-0.007502888329,513.9989624,-0.0002678889141,513.9989624,0.002095000353,513.9989624,-0.003002002602,
513.0165405,-0.00738563342,513.0165405,-0.000193169908,513.0165405,0.002137608593,513.0165405,-0.003066472476,
511.9959717,-0.007211422082,511.9959717,-0.0002603865287,511.9959717,0.002134695183,511.9959717,-0.002946830355,
511.0130615,-0.007073001005,511.0130615,-0.0001491810981,511.0130615,0.002068886068,511.0130615,-0.003022362478,
509.992157,-0.007011109963,509.992157,-0.0001579792151,509.992157,0.002191070234,509.992157,-0.002862130292,
509.0088501,-0.006951197051,509.0088501,-0.0001022375436,509.0088501,0.002182718832,509.0088501,-0.002895611105,
507.9875183,-0.006877874024,507.9875183,-0.0001265639439,507.9875183,0.002188832732,507.9875183,-0.002989405533,
507.0037842,-0.006808157079,507.0037842,-0.0001148149749,507.0037842,0.002304960974,507.0037842,-0.002869639313,
505.9819336,-0.006743118633,505.9819336,-9.763089474E-005,505.9819336,0.002274956787,505.9819336,-0.00294688181,
504.9977722,-0.006743526552,504.9977722,-0.0001788869704,504.9977722,0.002090474358,504.9977722,-0.003000614233,
504.0134277,-0.006585834548,504.0134277,-0.0003636491019,504.0134277,0.001951338607,504.0134277,-0.003226732137,
502.9909363,-0.006726449821,502.9909363,-0.0001825094951,502.9909363,0.002120986348,502.9909363,-0.003163416637,
502.0061646,-0.006730936002,502.0061646,-0.0003683563846,502.0061646,0.00221245666,502.0061646,-0.003180119907,
500.9833374,-0.006842966191,500.9833374,-0.0002386548149,500.9833374,0.002136438154,500.9833374,-0.003051307052,
499.9981079,-0.006908600684,499.9981079,-0.0001895992173,499.9981079,0.002145334845,499.9981079,-0.003208334558,
499.0126953,-0.006994400639,499.0126953,-0.0002891017939,499.0126953,0.002250965219,499.0126953,-0.003219075035,
497.9891052,-0.007190850098,497.9891052,-0.0002260809706,497.9891052,0.002276257845,497.9891052,-0.003174723592,
497.0032959,-0.007370719686,497.0032959,-0.0001027551407,497.0032959,0.00219151238,497.0032959,-0.003122503171,
496.0173645,-0.007563437801,496.0173645,-0.0001885642268,496.0173645,0.002252005972,496.0173645,-0.00311098923,
494.9931335,-0.007599254604,494.9931335,-0.0002363263484,494.9931335,0.002146167215,494.9931335,-0.003235159675,
494.0067749,-0.007661875803,494.0067749,-0.0001484565437,494.0067749,0.002330647083,494.0067749,-0.00342453341,
492.9821777,-0.007806312758,492.9821777,-0.0001214399817,492.9821777,0.002224321011,492.9821777,-0.003301547607,
491.9953308,-0.00792050641,491.9953308,-0.0001572546753,491.9953308,0.002188988728,491.9953308,-0.00333376159,
491.0082703,-0.008113945834,491.0082703,-0.0001869599801,491.0082703,0.00223007123,491.0082703,-0.003393764608,
489.9830627,-0.008287694305,489.9830627,-7.630512846E-005,489.9830627,0.002327472204,489.9830627,-0.003242045641,
488.995636,-0.008197017945,488.995636,-4.364155029E-005,488.995636,0.002282347064,488.995636,-0.003437785665,
488.0079956,-0.008215358481,488.0079956,-0.0001524933468,488.0079956,0.002260722918,488.0079956,-0.003367771162,
486.9820862,-0.008317000233,486.9820862,-0.0001164712376,486.9820862,0.002292808145,486.9820862,-0.003213216551,
485.9940491,-0.008057945408,485.9940491,-0.0002428977605,485.9940491,0.002276960295,485.9940491,-0.003395408392,
485.0058289,-0.007887868211,485.0058289,-0.0001626369631,485.0058289,0.002305507427,485.0058289,-0.003445952199,
484.0173645,-0.007826042362,484.0173645,-0.0001530626469,484.0173645,0.002331792377,484.0173645,-0.00338492915,
482.9907532,-0.007528025191,482.9907532,-0.000179352719,482.9907532,0.00236429926,482.9907532,-0.003360835835,
482.0018921,-0.007301794365,482.0018921,-0.0002366885601,482.0018921,0.002205249621,482.0018921,-0.003322253237,
481.0127869,-0.006779105403,481.0127869,-0.000233325205,481.0127869,0.002255830914,481.0127869,-0.003411281155,
479.9855957,-0.006279617082,479.9855957,-0.0002448122541,479.9855957,0.002281618305,479.9855957,-0.003494692734,
478.9960938,-0.005828084424,478.9960938,-0.0001508889836,478.9960938,0.002327524126,478.9960938,-0.003503115382,
478.0064697,-0.005230220035,478.0064697,-0.0002301687928,478.0064697,0.00236815121,478.0064697,-0.003506658832,
477.0166321,-0.004673890769,477.0166321,-0.0002540741116,477.0166321,0.002319378313,477.0166321,-0.003445695387,
475.9884644,-0.004041198175,475.9884644,-0.0003754947975,475.9884644,0.002326274989,475.9884644,-0.003589128144,
474.9982605,-0.003553749295,474.9982605,-0.0001115024352,474.9982605,0.002350114519,474.9982605,-0.003500906983,
474.007843,-0.003048068145,474.007843,-0.0001333440305,474.007843,0.002371326555,474.007843,-0.003468705341,
473.0172119,-0.002438639756,473.0172119,-5.301122656E-005,473.0172119,0.002367240144,473.0172119,-0.003572799731,
471.9883728,-0.001952274004,471.9883728,-0.0002213203989,471.9883728,0.00238137343,471.9883728,-0.003374603577,
470.9973145,-0.001249993104,470.9973145,-0.0002925681765,470.9973145,0.002246645745,470.9973145,-0.00372686726,
470.0061035,-0.0008806789992,470.0061035,-0.0001425565133,470.0061035,0.002530306811,470.0061035,-0.003486064728,
469.01474,-0.0003515961871,469.01474,-0.0002319798514,469.01474,0.002434422262,469.01474,-0.00356232468,
467.9850464,5.765187962E-005,467.9850464,-0.0001509924914,467.9850464,0.002434266033,467.9850464,-0.003573005321,
466.9932556,0.0004569205339,466.9932556,-0.0001185415531,466.9932556,0.00244051381,466.9932556,-0.003483291483,
466.0013123,0.001009456581,466.0013123,-0.0003478198778,466.0013123,0.002293823054,466.0013123,-0.003651868319,
465.0091553,0.001255184761,465.0091553,-7.998028013E-005,465.0091553,0.002474096138,465.0091553,-0.003614081535,
464.0167847,0.001657453366,464.0167847,-0.0001116059502,464.0167847,0.00252127205,464.0167847,-0.003604942234,
462.986084,0.001920526614,462.986084,-0.0001750056545,462.986084,0.00252338103,462.986084,-0.003536752192,
461.9933472,0.002537362976,461.9933472,-0.0002238041779,461.9933472,0.002524110023,461.9933472,-0.003744575428,
461.0003967,0.00281503913,461.0003967,-0.0001897027105,461.0003967,0.002383637941,461.0003967,-0.003729844233,
460.0073242,0.00279917242,460.0073242,-0.0002497795213,460.0073242,0.002524474403,460.0073242,-0.00361438957,
459.0140381,0.002973087132,459.0140381,-0.0001161606924,459.0140381,0.002542414237,459.0140381,-0.003582915291,
457.9823303,0.003229552414,457.9823303,-0.0001798184821,457.9823303,0.002527182456,457.9823303,-0.003625633428,
456.988678,0.003456761362,456.988678,-0.0002416559291,456.988678,0.002456731861,456.988678,-0.003750940086,
455.9948425,0.003577901283,455.9948425,-5.730775229E-005,455.9948425,0.002514684806,455.9948425,-0.003718602937,
455.0007629,0.003776594764,455.0007629,-0.0001323089091,455.0007629,0.002621759195,455.0007629,-0.003793641692,
454.0065308,0.003930239007,454.0065308,-0.0001238208206,454.0065308,0.002600977663,454.0065308,-0.003752993187,
453.0121155,0.004075262696,453.0121155,-0.0001372257248,453.0121155,0.002621967578,453.0121155,-0.003771726973,
452.0175476,0.004102516919,452.0175476,-3.033729445E-005,452.0175476,0.002665148582,452.0175476,-0.003663778538,
450.9844971,0.004337739665,450.9844971,-6.15007084E-005,450.9844971,0.002561500529,450.9844971,-0.003874876304,
449.989563,0.004413333721,449.989563,-4.602281479E-005,449.989563,0.002573244274,449.989563,-0.003722401569,
448.9943542,0.004617066588,448.9943542,-0.0001949811121,448.9943542,0.002571942285,448.9943542,-0.003866768908,
447.9990234,0.004577091895,447.9990234,-0.000149698637,447.9990234,0.002722035162,447.9990234,-0.003817454446,
447.00354,0.004685304128,447.00354,-8.629524382E-005,447.00354,0.002677337965,447.00354,-0.00376372016,
446.007782,0.004861075431,446.007782,-0.0001616019144,446.007782,0.002559886081,446.007782,-0.003888627747,
445.0119019,0.004735573195,445.0119019,-5.870540917E-005,445.0119019,0.002642567735,445.0119019,-0.003732154146,
444.0158997,0.004890211858,444.0158997,-0.000171383057,444.0158997,0.002603816101,444.0158997,-0.003902737983,
442.9812927,0.004796213005,442.9812927,-0.0001049290368,442.9812927,0.00269093411,442.9812927,-0.003733437276,
441.9848328,0.005073844455,441.9848328,-4.736873962E-005,441.9848328,0.002725473605,441.9848328,-0.003897247836,
440.9882507,0.005076673348,440.9882507,-0.0003403188894,440.9882507,0.002506431425,440.9882507,-0.003922542557,
439.9914551,0.004894845653,439.9914551,-5.891246838E-005,439.9914551,0.002788803307,439.9914551,-0.003838391975,
438.9945068,0.004871782381,438.9945068,0.0001076471963,438.9945068,0.002652777126,438.9945068,-0.003757458413,
437.997345,0.00495192036,437.997345,-0.0001646035671,437.997345,0.002758921823,437.997345,-0.003899454139,
437.0000305,0.004737954587,437.0000305,4.633613116E-006,437.0000305,0.002679161029,437.0000305,-0.003732410725,
436.0025024,0.004619237967,436.0025024,3.039118928E-005,436.0025024,0.002712293062,436.0025024,-0.003950914368,
435.0048218,0.004444924183,435.0048218,1.747337956E-005,435.0048218,0.002850370249,435.0048218,-0.003810320981,
434.006958,0.004458654672,434.006958,-0.0001073099629,434.006958,0.00279667112,434.006958,-0.00390843302,
433.0089111,0.004414144438,433.0089111,-0.0001289965003,433.0089111,0.002721878933,433.0089111,-0.004009652417,
432.0107117,0.00425672112,432.0107117,-3.62906103E-005,432.0107117,0.002806962235,432.0107117,-0.003938139416,
431.0123291,0.004303306807,431.0123291,-0.000218008674,431.0123291,0.002659080084,431.0123291,-0.004146386404,
430.0137634,0.004158494528,430.0137634,-0.0001237690594,430.0137634,0.00280308025,430.0137634,-0.004087718204,
429.0150452,0.004274889361,429.0150452,-0.0001265639439,429.0150452,0.00285870838,429.0150452,-0.004066792317,
428.0161438,0.004252381623,428.0161438,-0.0002145934268,428.0161438,0.002674759366,428.0161438,-0.00428630691,
427.0170288,0.004144930746,427.0170288,-0.0002448640007,427.0170288,0.002771218074,427.0170288,-0.004243550822,
426.0177612,0.004017727915,426.0177612,-6.351951743E-005,426.0177612,0.002741624368,426.0177612,-0.004231143743,
425.0183716,0.003984888084,425.0183716,-0.0002550571808,425.0183716,0.002721149474,425.0183716,-0.004211558495,
424.0187378,0.003812265117,424.0187378,-0.000203623058,424.0187378,0.00273719593,424.0187378,-0.00424642209,
423.0189514,0.003756044898,423.0189514,-0.0001430223056,423.0189514,0.002691819798,423.0189514,-0.004339053761,
422.0190125,0.00357957161,422.0190125,-0.0001274438109,422.0190125,0.00280581601,422.0190125,-0.004289946519,
421.0189514,0.003446898423,421.0189514,-0.0001864424848,421.0189514,0.002723077079,421.0189514,-0.004256368149,
420.0185852,0.003232942661,420.0185852,-0.0001937908819,420.0185852,0.002770384308,420.0185852,-0.004366116598,
419.018158,0.003056603484,419.018158,-0.0001257358381,419.018158,0.00280790031,419.018158,-0.004255393986,
418.0174866,0.00285149063,418.0174866,-0.0001126928837,418.0174866,0.002896179678,418.0174866,-0.004332185257,
417.0166931,0.00266118953,417.0166931,-6.771241169E-005,417.0166931,0.002900766209,417.0166931,-0.004234168679,
416.0157166,0.00262248842,416.0157166,-0.0003248509311,416.0157166,0.002657413017,416.0157166,-0.004443759564,
415.0145569,0.002318025101,415.0145569,-8.743399667E-005,415.0145569,0.00287421234,415.0145569,-0.004182434641,
414.0132751,0.002154465998,414.0132751,-3.411636499E-005,414.0132751,0.002828379162,414.0132751,-0.004235706758,
413.0117493,0.001939247595,413.0117493,-5.321828939E-005,413.0117493,0.003060566029,413.0117493,-0.004292919766,
412.0101318,0.001853242051,412.0101318,4.555954547E-006,412.0101318,0.002983278362,412.0101318,-0.004350227769,
411.0083008,0.001702643465,411.0083008,-3.318454401E-005,411.0083008,0.002837628825,411.0083008,-0.004400301725,
410.0063171,0.001525677624,410.0063171,-0.0001901166979,410.0063171,0.002861991525,410.0063171,-0.004362272564,
409.0042114,0.001411912963,409.0042114,-0.0001322571625,409.0042114,0.00288669439,409.0042114,-0.004368577152,
408.0018921,0.001355041866,408.0018921,-4.281328074E-005,408.0018921,0.002879267791,408.0018921,-0.004459286574,
406.9993896,0.00127315009,406.9993896,-0.0001355695422,406.9993896,0.002794300439,406.9993896,-0.004552641418,
405.9967346,0.001176893828,405.9967346,-0.0001779554586,405.9967346,0.002954686526,405.9967346,-0.004572723992,
404.993927,0.000997054507,404.993927,1.475525278E-005,404.993927,0.002994303592,404.993927,-0.004452881403,
403.9909058,0.001087743323,403.9909058,-0.0001832857524,403.9909058,0.002949161222,403.9909058,-0.004517545924,
402.9878235,0.001127346186,402.9878235,-0.0001350519888,402.9878235,0.002990081208,402.9878235,-0.004583430942,
401.9844971,0.001242126687,401.9844971,-0.0001789904636,401.9844971,0.002880726941,401.9844971,-0.004553871229,
400.9810181,0.001241581514,400.9810181,-8.091200289E-005,400.9810181,0.003046019701,400.9810181,-0.004642288201,
400.0159607,0.001419522334,400.0159607,-0.0001815262367,400.0159607,0.003031760687,400.0159607,-0.00464059785,
399.012207,0.001579375588,399.012207,-0.0001255805546,399.012207,0.002951793605,399.012207,-0.004709537141,
398.0082397,0.001865642611,398.0082397,-0.0002350327559,398.0082397,0.002861001296,398.0082397,-0.004758954979,
397.0041199,0.002086364664,397.0041199,-0.0002866701107,397.0041199,0.002843830036,397.0041199,-0.004864020739,
395.9998474,0.002287863754,395.9998474,-0.00019187617,395.9998474,0.002980515361,395.9998474,-0.004999923054,
394.9954224,0.00250382768,394.9954224,-0.0001112954051,394.9954224,0.002995163901,394.9954224,-0.004844463896,
393.9908142,0.002714272821,393.9908142,-4.302034722E-005,393.9908142,0.003151739016,393.9908142,-0.004765663296,
392.986084,0.003141804831,392.986084,-0.0001178687016,392.986084,0.002857561689,392.986084,-0.004879890941,
391.9811401,0.003264082596,391.9811401,-6.015482359E-005,391.9811401,0.003190070391,391.9811401,-0.004747023806,
391.0147705,0.003647724632,391.0147705,-0.0002423285914,391.0147705,0.002998708747,391.0147705,-0.004949559923,
390.009491,0.00394410966,390.009491,-0.0001643965516,390.009491,0.003163342364,390.009491,-0.004806678277,
389.0041199,0.004373822361,389.0041199,-9.095377027E-005,389.0041199,0.003052380402,389.0041199,-0.005009800661,
387.9985657,0.004721625242,387.9985657,-6.83384178E-006,387.9985657,0.003256075783,387.9985657,-0.005058110226,
386.9928894,0.005203059874,386.9928894,-0.0001164712376,386.9928894,0.003039737465,386.9928894,-0.005057598464,
385.9869995,0.005689619109,385.9869995,-0.0002204924676,385.9869995,0.003038408002,385.9869995,-0.00514744781,
384.9810181,0.006146818399,384.9810181,-8.686462388E-005,384.9810181,0.003246947424,384.9810181,-0.005086714402,
384.0135193,0.006713034119,384.0135193,-9.882137965E-005,384.0135193,0.003207176924,384.0135193,-0.005122071132,
383.0071716,0.007261931431,383.0071716,2.655981552E-005,383.0071716,0.003277905751,383.0071716,-0.005121661816,
382.0007324,0.007973377593,382.0007324,-0.0001431258133,382.0007324,0.003208246315,382.0007324,-0.005247304682,
380.9940796,0.008599484339,380.9940796,-0.0001867012325,380.9940796,0.003289460437,380.9940796,-0.005259171128,
379.9872742,0.009202434681,379.9872742,-1.082020026E-005,379.9872742,0.00336761144,379.9872742,-0.005093520042,
379.0190735,0.01006699447,379.0190735,-0.000113883325,379.0190735,0.003258866258,379.0190735,-0.005313845817,
378.0119934,0.01077379286,378.0119934,-9.31794857E-005,378.0119934,0.003229552414,378.0119934,-0.005225360859,
377.0047302,0.01138537843,377.0047302,-0.0002235971915,377.0047302,0.003192625707,377.0047302,-0.005372962449,
375.997345,0.01188860089,375.997345,-6.082776599E-005,375.997345,0.003346089739,375.997345,-0.005230731796,
374.9897461,0.01241470128,374.9897461,7.771662786E-005,374.9897461,0.003472782671,374.9897461,-0.005357877351,
373.9820862,0.01305885334,373.9820862,0.0001318054565,373.9820862,0.003417389235,373.9820862,-0.005367849022,
373.01297,0.01361303031,373.01297,0.0001453481527,373.01297,0.003591682296,373.01297,-0.005273697432,
372.0049744,0.01442088373,372.0049744,-2.231313192E-005,372.0049744,0.003567200387,372.0049744,-0.005372297484,
370.9968262,0.0149481073,370.9968262,-0.0001418837055,370.9968262,0.003489535302,370.9968262,-0.005467092618,
369.9884949,0.0153009193,369.9884949,-4.136380812E-005,369.9884949,0.003683071351,369.9884949,-0.005213748664,
369.0188293,0.01603979617,369.0188293,-0.0002950515482,369.0188293,0.003567957319,369.0188293,-0.00550292898,
368.0102234,0.01663006842,368.0102234,-0.0001389336539,368.0102234,0.003580981167,368.0102234,-0.005512744188,
367.0014648,0.01722208411,367.0014648,-0.0002612661337,367.0014648,0.00361846271,367.0014648,-0.005587320309,
365.9925842,0.0176206883,365.9925842,-0.0001863389916,365.9925842,0.003765836591,365.9925842,-0.0056074569,
364.9835205,0.01803822443,364.9835205,-8.106728637E-005,364.9835205,0.00380312535,364.9835205,-0.005541369785,
364.0131836,0.01838969439,364.0131836,-7.237113459E-005,364.0131836,0.003813153133,364.0131836,-0.005588751286,
363.0038147,0.01883292198,363.0038147,-2.738649164E-005,363.0038147,0.003716018982,363.0038147,-0.005817919038,
361.9943542,0.01913587935,361.9943542,-0.000159842326,361.9943542,0.003861832665,361.9943542,-0.005697806366,
360.9847107,0.01946265623,360.9847107,-0.00011678179,360.9847107,0.003939982504,360.9847107,-0.005672614556,
360.0137329,0.01990391687,360.0137329,-0.0002434151829,360.0137329,0.003875753377,360.0137329,-0.005877426825,
359.0037842,0.02011068538,359.0037842,-0.0001540459634,359.0037842,0.004056318663,359.0037842,-0.005941930693,
357.9937744,0.02048625238,357.9937744,-0.0001123823313,357.9937744,0.004110069014,357.9937744,-0.005759424996,
356.9835205,0.02063131891,356.9835205,-0.0001597388182,356.9835205,0.004211447202,356.9835205,-0.005883913022,
356.0120239,0.02083509229,356.0120239,-2.448743544E-005,356.0120239,0.004420917481,356.0120239,-0.005847954657,
355.0015564,0.02114632726,355.0015564,-6.729830056E-005,355.0015564,0.004357636906,355.0015564,-0.00585275609,
353.9909058,0.02129933797,353.9909058,-5.663480624E-005,353.9909058,0.004452221096,353.9909058,-0.005782517139,
353.0189819,0.02143502235,353.0189819,6.80336525E-005,353.0189819,0.004705583677,353.0189819,-0.005846932996,
352.0080872,0.02171786688,352.0080872,-2.604050314E-005,352.0080872,0.004740676377,352.0080872,-0.006016126834,
350.9970093,0.02213113569,350.9970093,-5.906776278E-005,350.9970093,0.004506935831,350.9970093,-0.006179078948,
349.9858093,0.02225304954,349.9858093,-6.802300049E-005,349.9858093,0.004807807971,349.9858093,-0.006203781813,
349.0133667,0.0226359833,349.0133667,-7.092176384E-005,349.0133667,0.004828276578,349.0133667,-0.00627140142,
348.0018616,0.02289980091,348.0018616,-9.235131438E-005,348.0018616,0.005009002518,348.0018616,-0.006218735594,
346.9902039,0.0232448522,346.9902039,-8.914212231E-005,346.9902039,0.004884609487,346.9902039,-0.006485724356,
346.017334,0.02346879058,346.017334,-5.094059816E-005,346.017334,0.00498883985,346.017334,-0.006363449153,
345.0054321,0.02360958233,345.0054321,-8.748575783E-005,345.0054321,0.005058759358,345.0054321,-0.00637110183,
343.9934082,0.02376234159,343.9934082,3.116782318E-005,343.9934082,0.005221451167,343.9934082,-0.006329928525,
342.9812012,0.0241724439,342.9812012,-0.0002282542409,342.9812012,0.005226796027,342.9812012,-0.006551617291,
342.007843,0.02407420427,342.007843,0.0001279990829,342.007843,0.005566394422,342.007843,-0.006275177468,
340.9953613,0.02440523915,340.9953613,0.0001077507623,340.9953613,0.005704201758,340.9953613,-0.006398650818,
339.9827881,0.0245916713,339.9827881,9.550383402E-005,339.9827881,0.005829931702,339.9827881,-0.006468025502,
339.0089722,0.02495915256,339.0089722,-1.635962326E-005,339.0089722,0.005690379534,339.0089722,-0.006624944508,
337.9961243,0.02523664944,337.9961243,7.041553908E-005,337.9961243,0.005893348251,337.9961243,-0.006585681811,
336.9831238,0.02542807534,336.9831238,0.0001399362081,336.9831238,0.006051864475,336.9831238,-0.006629686337,
336.0089417,0.0257982444,336.0089417,1.061325975E-006,336.0089417,0.006026849616,336.0089417,-0.006723493338,
334.9956665,0.02598189563,334.9956665,0.0001557320211,334.9956665,0.006345692556,334.9956665,-0.006710595917,
333.9822083,0.02641030028,333.9822083,7.108868886E-005,333.9822083,0.006276090629,333.9822083,-0.006769777741,
333.0076599,0.02682990581,333.0076599,9.933581896E-005,333.0076599,0.006323602516,333.0076599,-0.006878587417,
331.993988,0.02713984624,331.993988,0.0001333332038,331.993988,0.006487636361,331.993988,-0.006746738218,
331.0191956,0.02746536955,331.0191956,0.00026481651,331.0191956,0.006950437557,331.0191956,-0.006801735144,
330.0052185,0.02797201276,330.0052185,0.0002206044737,330.0052185,0.006827196572,330.0052185,-0.006946815178,
328.9911804,0.02864786051,328.9911804,0.0001407648233,328.9911804,0.006900332402,328.9911804,-0.006949821487,
328.0159607,0.02945535816,328.0159607,-4.084613829E-005,328.0159607,0.006907223258,328.0159607,-0.007244365755,
327.0016174,0.03010164015,327.0016174,-7.558636753E-006,327.0016174,0.006789358333,327.0016174,-0.007286216132,
325.9871521,0.03075147048,325.9871521,3.758805178E-005,325.9871521,0.006959170569,325.9871521,-0.007319255732,
325.0115662,0.03150964528,325.0115662,0.0001755164412,325.0115662,0.006876899395,325.0115662,-0.007430574857,
323.9968262,0.03231378645,323.9968262,4.58723589E-005,323.9968262,0.006839661393,323.9968262,-0.00726788817,
322.9819641,0.03311503306,322.9819641,0.0001149230156,322.9819641,0.007079344243,322.9819641,-0.007292223629,
322.0060425,0.03383875638,322.0060425,0.0002902527922,322.0060425,0.007450019475,322.0060425,-0.007274404634,
320.9908752,0.03484865278,320.9908752,0.000232285136,320.9908752,0.007495816331,320.9908752,-0.007561148144,
320.014679,0.03566541523,320.014679,0.0003090848913,320.014679,0.00735377986,320.014679,-0.007522020955,
318.9992981,0.03653782979,318.9992981,0.000336078112,318.9992981,0.007558818441,318.9992981,-0.007522784173,
317.9837952,0.03746002913,317.9837952,0.0003730993776,317.9837952,0.007736573927,317.9837952,-0.007568779867,
317.0072327,0.03834768012,317.0072327,0.000519220368,317.0072327,0.00792315416,317.0072327,-0.007423398551,
315.9914856,0.03924970329,315.9914856,0.0003776851518,315.9914856,0.00778635405,315.9914856,-0.007815821096,
315.0146484,0.04022360221,315.0146484,0.0002617342107,315.0146484,0.007452705409,315.0146484,-0.007824262604,
313.9986572,0.04092443362,313.9986572,0.0005396693014,313.9986572,0.007825965993,313.9986572,-0.007677746005,
312.9824829,0.04193311557,312.9824829,0.000376674725,312.9824829,0.007988221943,312.9824829,-0.008049052209,
312.0053406,0.04307632893,312.0053406,0.000281419867,312.0053406,0.007861733437,312.0053406,-0.008068160154,
310.9889832,0.04382104054,310.9889832,0.000470369705,310.9889832,0.008324656636,310.9889832,-0.008113539778,
310.0115356,0.04472751543,310.0115356,0.0003103800991,310.0115356,0.008174119517,310.0115356,-0.008176746778,
308.994873,0.04555330798,308.994873,0.0003131000849,308.994873,0.008066352457,308.994873,-0.00828378275,
308.0172424,0.04609346017,308.0172424,0.0003801464627,308.0172424,0.008256505243,308.0172424,-0.008118976839,
307.0003662,0.04720731825,307.0003662,0.0003151983547,307.0003662,0.008319696411,307.0003662,-0.008361236192,
305.9833679,0.04791191965,305.9833679,0.0004673895892,305.9833679,0.008607537486,305.9833679,-0.008299782872,
305.0053406,0.0487524569,305.0053406,0.0003807423636,305.0053406,0.008522735909,305.0053406,-0.008329952136,
303.9880676,0.04956613109,303.9880676,0.000589927542,303.9880676,0.008909231052,303.9880676,-0.00828830339,
303.0098267,0.05059374124,303.0098267,0.0004713025992,303.0098267,0.00905093085,303.0098267,-0.008470460773,
301.9923706,0.0514152199,301.9923706,0.0004923712695,301.9923706,0.009037768468,301.9923706,-0.008181472309,
301.013855,0.05220111832,301.013855,0.0007185414433,301.013855,0.009443319403,301.013855,-0.008034771308,
299.9961548,0.05336302891,299.9961548,0.0006120129256,299.9961548,0.009451970458,299.9961548,-0.008073852398,
299.0174561,0.05433069915,299.0174561,0.0006190379499,299.0174561,0.009703185409,299.0174561,-0.007592742331,
297.9994812,0.05547308922,297.9994812,0.0007276165998,297.9994812,0.009830316529,297.9994812,-0.007048398722,
296.9813843,0.05668122694,296.9813843,0.0007292242371,296.9813843,0.009828330949,296.9813843,-0.005950714462,
296.0023193,0.05786061287,296.0023193,0.000841253961,296.0023193,0.01010519825,296.0023193,-0.004826697521,
294.9840088,0.05916808173,294.9840088,0.001007899875,294.9840088,0.01031456236,294.9840088,-0.002762855496,
294.0047302,0.06053430587,294.0047302,0.001167445909,294.0047302,0.01064182259,294.0047302,1.990676537E-005,
292.986145,0.06155592576,292.986145,0.001900428557,292.986145,0.01162152179,292.986145,0.004204076715,
292.0066528,0.06204083934,292.0066528,0.00238064467,292.0066528,0.0119671179,292.0066528,0.008829574101,
290.987854,0.06266251206,290.987854,0.002996180439,290.987854,0.01246062573,290.987854,0.01376912557,
290.0081482,0.06407288462,290.0081482,0.003853605827,290.0081482,0.01365868002,290.0081482,0.0211655423,
288.9891052,0.06541425735,288.9891052,0.005829616915,288.9891052,0.01539426949,288.9891052,0.03055010177,
288.0091553,0.06711325049,288.0091553,0.008163541555,288.0091553,0.01826346293,288.0091553,0.04131622612,
286.9898987,0.06897202134,286.9898987,0.01060351729,286.9898987,0.02073133364,286.9898987,0.05257081613,
286.0097351,0.06997618079,286.0097351,0.01473124977,286.0097351,0.02475790307,286.0097351,0.06475251913,
284.9902649,0.07130226493,284.9902649,0.02041659877,284.9902649,0.030209966,284.9902649,0.07946511358,
284.0098572,0.07274702191,284.0098572,0.027101079,284.0098572,0.03798926622,284.0098572,0.09637459368,
282.9901428,0.07419131696,282.9901428,0.03699532896,282.9901428,0.04708223417,282.9901428,0.1159185469,
282.0095215,0.07518407702,282.0095215,0.04581782222,282.0095215,0.05635846779,282.0095215,0.1337386519,
280.989624,0.07626926899,280.989624,0.05769174546,280.989624,0.06761448085,280.989624,0.1545127481,
280.0087891,0.07742211223,280.0087891,0.07019793242,280.0087891,0.080208987,280.0087891,0.1786653399,
278.9886169,0.07893589884,278.9886169,0.08422476798,278.9886169,0.09435495734,278.9886169,0.2073447704,
278.0075684,0.08009120822,278.0075684,0.1004139856,278.0075684,0.1112086177,278.0075684,0.2402231395,
276.9872131,0.08132810891,276.9872131,0.1153597012,276.9872131,0.1267724335,276.9872131,0.2727172077,
276.0059509,0.08252578229,276.0059509,0.131621778,276.0059509,0.1422913969,276.0059509,0.3049505949,
274.985321,0.08382094651,274.985321,0.152349323,274.985321,0.1631116271,274.985321,0.3464574516,
274.0039063,0.08473382145,274.0039063,0.1740513146,274.0039063,0.184532702,274.0039063,0.3914884031,
272.9830627,0.08552009612,272.9830627,0.2013551891,272.9830627,0.2122586071,272.9830627,0.4455116391,
272.0014038,0.08590658009,272.0014038,0.2238588035,272.0014038,0.2338629514,272.0014038,0.4864147007,
271.0196228,0.08573634923,271.0196228,0.2479700148,271.0196228,0.2574242949,271.0196228,0.5330159068,
269.9985046,0.08539955318,269.9985046,0.2770037353,269.9985046,0.2864077985,269.9985046,0.5847061276,
269.01651,0.08505010605,269.01651,0.3013656437,269.01651,0.3117046058,269.01651,0.6337211132,
267.9951172,0.08507432044,267.9951172,0.3251672685,267.9951172,0.3357567787,267.9951172,0.679592371,
267.0129395,0.08551023155,267.0129395,0.3407776952,267.0129395,0.3514609933,267.0129395,0.710078299,
265.991394,0.08596967906,265.991394,0.3567716479,265.991394,0.3664086163,265.991394,0.7418185472,
265.0090027,0.08641176671,265.0090027,0.3711986542,265.0090027,0.3807707429,265.0090027,0.7701855898,
263.9871826,0.08709295094,263.9871826,0.3822160065,263.9871826,0.3921064436,263.9871826,0.7945344448,
263.0046082,0.08783002198,263.0046082,0.3919132948,263.0046082,0.4012077153,263.0046082,0.8146359324,
261.9826355,0.08831086755,261.9826355,0.3989731371,261.9826355,0.4084799588,261.9826355,0.8328657746,
260.9998169,0.08900504559,260.9998169,0.4033855498,260.9998169,0.4129576087,260.9998169,0.8470445275,
260.0169373,0.08992383629,260.0169373,0.4057112932,260.0169373,0.4153777063,260.0169373,0.8598339558,
258.9945984,0.09055860341,258.9945984,0.4068583846,258.9945984,0.4161784947,258.9945984,0.8739625216,
258.0115051,0.09133624285,258.0115051,0.404887408,258.0115051,0.4143016338,258.0115051,0.883482933,
256.9890137,0.09200299531,256.9890137,0.400745213,256.9890137,0.4099896252,256.9890137,0.8864073753,
256.0057373,0.09291565418,256.0057373,0.3940031528,256.0057373,0.4033608735,256.0057373,0.8811737299,
254.983017,0.09365137666,254.983017,0.3847162127,254.983017,0.3937952816,254.983017,0.8667557836,
253.999527,0.09447550774,253.999527,0.3737240732,253.999527,0.3827224374,253.999527,0.8434457779,
253.0159454,0.09533811361,253.0159454,0.3623009622,253.0159454,0.371784091,253.0159454,0.8161296844,
251.9929504,0.09631901234,251.9929504,0.3525462151,251.9929504,0.3612757921,251.9929504,0.7933932543,
251.0091705,0.09725598246,251.0091705,0.3389743268,251.0091705,0.348038435,251.0091705,0.7658026218,
249.9859314,0.09850952774,249.9859314,0.3230426908,249.9859314,0.3321132064,249.9859314,0.7351838946,
249.0019836,0.09982383996,249.0019836,0.3071173429,249.0019836,0.316159755,249.0019836,0.7050725818,
248.0179138,0.1009663939,248.0179138,0.2913340926,248.0179138,0.3002913594,248.0179138,0.673286736,
246.9943848,0.102416575,246.9943848,0.2785388529,246.9943848,0.2877517939,246.9943848,0.6485128999,
246.0101471,0.1039241031,246.0101471,0.2627751231,246.0101471,0.2718423903,246.0101471,0.6116662621,
244.9864349,0.1055870205,244.9864349,0.2430996895,244.9864349,0.2527428269,244.9864349,0.5632072091,
244.0019836,0.1076813936,244.0019836,0.2244498879,244.0019836,0.2335120738,244.0019836,0.5177156925,
243.0174866,0.1097852811,243.0174866,0.2097527832,243.0174866,0.2189593166,243.0174866,0.4799153209,
241.9934692,0.1121321842,241.9934692,0.1961038709,241.9934692,0.205872789,241.9934692,0.4495093524,
241.0087433,0.114824228,241.0087433,0.1810222566,241.0087433,0.1911986023,241.0087433,0.4143406153,
239.9845581,0.118241109,239.9845581,0.1655988395,239.9845581,0.1756949127,239.9845581,0.3772079945,
238.9996796,0.1222478747,238.9996796,0.1513063163,238.9996796,0.1614770889,238.9996796,0.3425757885,
238.0146637,0.1263404191,238.0146637,0.1393346936,238.0146637,0.1501113325,238.0146637,0.3125251234,
236.9901886,0.1307774037,236.9901886,0.1280822903,236.9901886,0.1389159262,236.9901886,0.2839505374,
236.0050354,0.1352413148,236.0050354,0.1188421622,236.0050354,0.1299314201,236.0050354,0.2600789666,
234.9803619,0.1414230764,234.9803619,0.1082517281,234.9803619,0.1199135333,234.9803619,0.234259069,
233.9950104,0.146550864,233.9950104,0.100667119,233.9950104,0.1129951999,233.9950104,0.2154080272,
233.0095978,0.1527252048,233.0095978,0.09291017056,233.0095978,0.1054501161,233.0095978,0.1969187707,
231.9846344,0.1586342603,231.9846344,0.08687969297,231.9846344,0.09942094237,231.9846344,0.181525588,
230.9989929,0.1652636081,230.9989929,0.08185265958,230.9989929,0.09516082704,230.9989929,0.1709246933,
230.0133057,0.1721495241,230.0133057,0.07679833472,230.0133057,0.09061080962,230.0133057,0.1602601856,
228.9881134,0.1780721843,228.9881134,0.07342606038,228.9881134,0.08844694495,228.9881134,0.15693748,
228.0021973,0.1833957583,228.0021973,0.07142146677,228.0021973,0.08805858344,228.0021973,0.1576123089,
227.0162506,0.1908314526,227.0162506,0.0702143088,227.0162506,0.08525115997,227.0162506,0.1575634181,
225.9907532,0.1974591911,225.9907532,0.07061371207,225.9907532,0.08762162179,225.9907532,0.1665721536,
225.0046082,0.2037211508,225.0046082,0.07406653464,225.0046082,0.09118178487,225.0046082,0.1821101755,
224.0183868,0.2107378095,224.0183868,0.07907608896,224.0183868,0.09709312022,224.0183868,0.2047018707,
222.99263,0.2173886895,222.99263,0.08979432285,222.99263,0.1073651984,222.99263,0.2343545258,
222.0062408,0.2242292464,222.0062408,0.1016038507,222.0062408,0.1220880598,222.0062408,0.2684293091,
220.9803009,0.2325373441,220.9803009,0.1258798689,220.9803009,0.1446645707,220.9803009,0.3212244213,
219.9937439,0.2422105521,219.9937439,0.1611066014,219.9937439,0.1821586043,219.9937439,0.3835247159,

Baseline 100%T,
Baseline 100%T
Collection Time: 7/8/2026 5:24:49 PM
Operator Name  :
Scan Version 5.1.0.1016
Parameter List :
Instrument  Cary 60
Instrument Version  2.00
Start (nm)  800.0
Stop (nm)  220.0
X Mode  Nanometers
Y Mode  Abs
UV-Vis Scan Rate (nm/min)  600.000
UV-Vis Data Interval (nm)  1.00
UV-Vis Ave. Time (sec)  0.1000
Beam Mode  Dual Beam
Baseline Correction  On
Baseline Type  Baseline correction
Baseline File Name
Baseline Std Ref File Name
Cycle Mode  Off
Method Log     :
Method Name    :
Date/Time stamp: 7/8/2026 5:24:12 PM
Method Modifications:
UVVIS SAT Changed: 7/8/2026 5:24:43 PM, Old:0.0125, New:0.1000
Common SAT Changed: 7/8/2026 5:24:43 PM, Old:0.0125, New:0.1000
X Stop nm Changed: 7/8/2026 5:24:44 PM, Old:  200.0, New:  220.0
Common Interval nm Changed: 7/8/2026 5:24:44 PM, Old:     5.00, New:     1.00
Baseline Correction Changed: 7/8/2026 5:24:44 PM, Old:0, New:1
Storage Changed: 7/8/2026 5:24:44 PM, Old:1, New:0
End Method Modifications
<Current Wavelength> , 220.0

CM52_frac_110-175_10x,
CM52_frac_110-175_10x
Collection Time: 7/8/2026 5:27:50 PM
Operator Name  :
Scan Version 5.1.0.1016
Parameter List :
Instrument  Cary 60
Instrument Version  2.00
Start (nm)  800.0
Stop (nm)  220.0
X Mode  Nanometers
Y Mode  Abs
UV-Vis Scan Rate (nm/min)  600.000
UV-Vis Data Interval (nm)  1.00
UV-Vis Ave. Time (sec)  0.1000
Beam Mode  Dual Beam
Baseline Correction  On
Baseline Type  Baseline correction
Baseline File Name
Baseline Std Ref File Name
Cycle Mode  Off
Method Log     :
Method Name    :
Date/Time stamp: 7/8/2026 5:24:12 PM
Method Modifications:
UVVIS SAT Changed: 7/8/2026 5:24:43 PM, Old:0.0125, New:0.1000
Common SAT Changed: 7/8/2026 5:24:43 PM, Old:0.0125, New:0.1000
X Stop nm Changed: 7/8/2026 5:24:44 PM, Old:  200.0, New:  220.0
Common Interval nm Changed: 7/8/2026 5:24:44 PM, Old:     5.00, New:     1.00
Baseline Correction Changed: 7/8/2026 5:24:44 PM, Old:0, New:1
Storage Changed: 7/8/2026 5:24:44 PM, Old:1, New:0
End Method Modifications
<Current Wavelength> , 220.0

CM52_frac_110-175_10x1_repeat,
CM52_frac_110-175_10x1_repeat
Collection Time: 7/8/2026 5:33:38 PM
Operator Name  :
Scan Version 5.1.0.1016
Parameter List :
Instrument  Cary 60
Instrument Version  2.00
Start (nm)  800.0
Stop (nm)  220.0
X Mode  Nanometers
Y Mode  Abs
UV-Vis Scan Rate (nm/min)  600.000
UV-Vis Data Interval (nm)  1.00
UV-Vis Ave. Time (sec)  0.1000
Beam Mode  Dual Beam
Baseline Correction  On
Baseline Type  Baseline correction
Baseline File Name
Baseline Std Ref File Name
Cycle Mode  Off
Method Log     :
Method Name    :
Date/Time stamp: 7/8/2026 5:24:12 PM
Method Modifications:
UVVIS SAT Changed: 7/8/2026 5:24:43 PM, Old:0.0125, New:0.1000
Common SAT Changed: 7/8/2026 5:24:43 PM, Old:0.0125, New:0.1000
X Stop nm Changed: 7/8/2026 5:24:44 PM, Old:  200.0, New:  220.0
Common Interval nm Changed: 7/8/2026 5:24:44 PM, Old:     5.00, New:     1.00
Baseline Correction Changed: 7/8/2026 5:24:44 PM, Old:0, New:1
Storage Changed: 7/8/2026 5:24:44 PM, Old:1, New:0
End Method Modifications
<Current Wavelength> , 222.0

CM52_frac_176-240_10x,
CM52_frac_176-240_10x
Collection Time: 7/8/2026 6:55:06 PM
Operator Name  :
Scan Version 5.1.0.1016
Parameter List :
Instrument  Cary 60
Instrument Version  2.00
Start (nm)  800.0
Stop (nm)  220.0
X Mode  Nanometers
Y Mode  Abs
UV-Vis Scan Rate (nm/min)  600.000
UV-Vis Data Interval (nm)  1.00
UV-Vis Ave. Time (sec)  0.1000
Beam Mode  Dual Beam
Baseline Correction  On
Baseline Type  Baseline correction
Baseline File Name
Baseline Std Ref File Name
Cycle Mode  Off
Method Log     :
Method Name    :
Date/Time stamp: 7/8/2026 5:24:12 PM
Method Modifications:
UVVIS SAT Changed: 7/8/2026 5:24:43 PM, Old:0.0125, New:0.1000
Common SAT Changed: 7/8/2026 5:24:43 PM, Old:0.0125, New:0.1000
X Stop nm Changed: 7/8/2026 5:24:44 PM, Old:  200.0, New:  220.0
Common Interval nm Changed: 7/8/2026 5:24:44 PM, Old:     5.00, New:     1.00
Baseline Correction Changed: 7/8/2026 5:24:44 PM, Old:0, New:1
Storage Changed: 7/8/2026 5:24:44 PM, Old:1, New:0
End Method Modifications
<Current Wavelength> , 220.0

