Baseline 100%T,,TigE_30x_2ndbase,,TigE_60x_2ndbase1,,TigE_90x_2ndbase,,
Wavelength (nm),Abs,Wavelength (nm),Abs,Wavelength (nm),Abs,Wavelength (nm),Abs,
799.9848022,-0.003645399585,799.9848022,0.004125487525,799.9848022,0.005834103096,799.9848022,0.001416795421,
799.0141602,-0.003649968654,799.0141602,0.00326851639,799.0141602,0.005870651454,799.0141602,0.001098642941,
798.0085449,-0.003866461106,798.0085449,0.003675004467,798.0085449,0.006134688854,798.0085449,0.001948920311,
797.0025024,-0.003525249194,797.0025024,0.003677667351,797.0025024,0.006216268055,797.0025024,0.001443260233,
795.9959106,-0.003810474882,795.9959106,0.003841069993,795.9959106,0.006121693179,795.9959106,0.001873623929,
794.9890137,-0.003335200017,794.9890137,0.003801271319,794.9890137,0.006083732005,794.9890137,0.001603615819,
794.0164185,-0.003329394618,794.0164185,0.00389246922,794.0164185,0.006029474549,794.0164185,0.001388150849,
793.0087891,-0.003194510238,793.0087891,0.00342346821,793.0087891,0.006454214919,793.0087891,0.001428845921,
792.0007324,-0.003123479895,792.0007324,0.003750196192,792.0007324,0.005899698008,792.0007324,0.001345901634,
790.9921875,-0.003381641349,790.9921875,0.004044613335,790.9921875,0.006254686974,790.9921875,0.001589482068,
789.9833984,-0.003094797255,789.9833984,0.003950614017,789.9833984,0.005898543634,789.9833984,0.001003281446,
789.0088501,-0.003170303535,789.0088501,0.003854650538,789.0088501,0.005854226649,789.0088501,0.001853761962,
787.9992676,-0.003540860256,787.9992676,0.004421675578,787.9992676,0.006697812583,787.9992676,0.001815782511,
786.9891357,-0.002731010783,786.9891357,0.003852874739,786.9891357,0.006138233002,786.9891357,0.001466298127,
786.0134888,-0.003210955532,786.0134888,0.004517346155,786.0134888,0.006774870679,786.0134888,0.002224633237,
785.0026855,-0.002780911746,785.0026855,0.003691477701,785.0026855,0.006380655337,785.0026855,0.001512221759,
783.9914551,-0.002532584127,783.9914551,0.003967750818,783.9914551,0.006135371048,783.9914551,0.001543316408,
783.0147095,-0.002841660054,783.0147095,0.004051511176,783.0147095,0.0060156947,783.0147095,0.001622323063,
782.0026245,-0.002706881147,782.0026245,0.004137561191,782.0026245,0.006562186405,782.0026245,0.001461389242,
780.9902344,-0.002779522911,780.9902344,0.003751083976,780.9902344,0.005887628067,780.9902344,0.001516819582,
780.0123291,-0.002399563091,780.0123291,0.004282679874,780.0123291,0.005951184314,780.0123291,0.001565190614,
778.9991455,-0.002467417158,778.9991455,0.003905868623,778.9991455,0.006122848019,778.9991455,0.001574231545,
777.9855347,-0.00253500347,777.9855347,0.004161656834,777.9855347,0.006194499787,777.9855347,0.001511598355,
777.0065308,-0.002635102253,777.0065308,0.0046441718,777.0065308,0.005960212089,777.0065308,0.001827012282,
775.9921265,-0.002888822695,775.9921265,0.004438857082,775.9921265,0.006165354513,775.9921265,0.001894084737,
775.0123901,-0.002682184335,775.0123901,0.004129250534,775.0123901,0.006445597392,775.0123901,0.001856387709,
773.9972534,-0.002202633303,773.9972534,0.003980264068,773.9972534,0.005933496635,773.9972534,0.001090805628,
773.0167847,-0.003055625362,773.0167847,0.004851756617,773.0167847,0.006664743181,773.0167847,0.002005037153,
772.0008545,-0.002550238511,772.0008545,0.004545988515,772.0008545,0.006357696839,772.0008545,0.001459493185,
770.9845581,-0.002693606773,770.9845581,0.004792208318,770.9845581,0.00615561381,770.9845581,0.001842531608,
770.0029297,-0.002729621716,770.0029297,0.004167171661,770.0029297,0.006558323279,770.0029297,0.00159000163,
768.9859009,-0.002892988268,768.9859009,0.004452037625,768.9859009,0.006165617146,768.9859009,0.00201673992,
768.003479,-0.002485177014,768.003479,0.004112264141,768.003479,0.00598884467,768.003479,0.001542511163,
766.9856567,-0.003032233566,766.9856567,0.004657254089,766.9856567,0.006313779391,766.9856567,0.001804890926,
766.0025635,-0.002959171543,766.0025635,0.004516901448,766.0025635,0.006154694594,766.0025635,0.001953470754,
764.9839478,-0.002932432108,764.9839478,0.004156978801,764.9839478,0.00591982482,764.9839478,0.001472947421,
764.0001221,-0.003692167113,764.0001221,0.004931340925,764.0001221,0.006325099617,764.0001221,0.001904120552,
763.0159302,-0.003274932038,763.0159302,0.00444115838,763.0159302,0.006479884963,763.0159302,0.0016463059,
761.9962158,-0.003289421787,761.9962158,0.004457634408,761.9962158,0.006140753627,761.9962158,0.001874325913,
761.0112305,-0.00345951179,761.0112305,0.00467454968,761.0112305,0.006259781774,761.0112305,0.002004412934,
759.9907227,-0.003604018129,759.9907227,0.004693363328,759.9907227,0.006113790907,759.9907227,0.001847288921,
759.005127,-0.00353947375,759.005127,0.004510493018,759.005127,0.006052179262,759.005127,0.001526586828,
757.9838257,-0.004245345481,757.9838257,0.004892018158,757.9838257,0.006496149581,757.9838257,0.001778742066,
756.9974365,-0.004450575449,756.9974365,0.005024190992,756.9974365,0.007007599343,756.9974365,0.002123977756,
756.0106812,-0.00416412903,756.0106812,0.004637316801,756.0106812,0.006330457982,756.0106812,0.001503909472,
754.9883423,-0.004394971766,754.9883423,0.004413150717,754.9883423,0.005895263515,754.9883423,0.001671771286,
754.0009155,-0.004991631955,754.0009155,0.004677846562,754.0009155,0.006191873923,754.0009155,0.001893226756,
753.0130615,-0.005183004308,753.0130615,0.00499153696,753.0130615,0.006295131519,753.0130615,0.00174136681,
751.989563,-0.005666175857,751.989563,0.004759911913,751.989563,0.006452638656,751.989563,0.001858415431,
751.0010986,-0.005991260055,751.0010986,0.005139665678,751.0010986,0.00649102591,751.0010986,0.001987353666,
750.012146,-0.00622720737,750.012146,0.004528828897,750.012146,0.005924863275,750.012146,0.001743991859,
748.9874878,-0.006777321454,748.9874878,0.004744183272,748.9874878,0.006417249795,748.9874878,0.00188176136,
747.9979248,-0.007089249324,747.9979248,0.005090999417,747.9979248,0.006612226367,747.9979248,0.002080980688,
747.0078735,-0.007377743721,747.0078735,0.005061640404,747.0078735,0.006361242849,747.0078735,0.001696432475,
746.0176392,-0.00809809193,746.0176392,0.005214666016,746.0176392,0.006527419202,746.0176392,0.001919512637,
744.9915161,-0.008489195257,744.9915161,0.005300081801,744.9915161,0.006527287886,744.9915161,0.001940729679,
744.0004883,-0.008793047629,744.0004883,0.005482760724,744.0004883,0.006226430647,744.0004883,0.001835590694,
743.0090942,-0.00921708066,743.0090942,0.00525289122,743.0090942,0.00640164502,743.0090942,0.001840087934,
742.017334,-0.009749855846,742.017334,0.005133640952,742.017334,0.006264351308,742.017334,0.001869204338,
740.9897461,-0.01025209576,740.9897461,0.005267983302,740.9897461,0.006185467355,740.9897461,0.00173559715,
739.9973145,-0.01094810851,739.9973145,0.005527852569,739.9973145,0.006543238647,739.9973145,0.002046960406,
739.0045166,-0.01137387659,739.0045166,0.005330741405,739.0045166,0.006431777962,739.0045166,0.002030367497,
738.0114136,-0.01197790354,738.0114136,0.005511099938,738.0114136,0.006565970834,738.0114136,0.00186964625,
736.9823608,-0.01261483785,736.9823608,0.00553556066,736.9823608,0.006508604623,736.9823608,0.001946840202,
735.9884644,-0.01308650058,735.9884644,0.005359254312,735.9884644,0.006370909512,735.9884644,0.001899518655,
734.9942627,-0.01370029245,734.9942627,0.005196432117,734.9942627,0.006470951717,734.9942627,0.00193503534,
733.9996948,-0.01429658663,733.9996948,0.005354038905,733.9996948,0.006477809045,733.9996948,0.00185061642,
733.0048218,-0.01499085408,733.0048218,0.005252839066,733.0048218,0.006392161362,733.0048218,0.001867930405,
732.0095825,-0.01574797742,732.0095825,0.005495160818,732.0095825,0.006512046792,732.0095825,0.001809959766,
731.0139771,-0.01640927233,731.0139771,0.00557926856,731.0139771,0.006570990197,731.0139771,0.001904692501,
729.9824829,-0.01700504683,729.9824829,0.005715112668,729.9824829,0.006464015227,729.9824829,0.002107121749,
728.986145,-0.01759065874,728.986145,0.005583647173,728.986145,0.006592987571,728.986145,0.001920734649,
727.989502,-0.01833994128,727.989502,0.005793203134,727.989502,0.006709432229,727.989502,0.002134460956,
726.9924927,-0.01876660995,726.9924927,0.005722010974,726.9924927,0.006682855077,726.9924927,0.001985403243,
725.9951782,-0.01906087995,725.9951782,0.006061104126,725.9951782,0.006476469338,725.9951782,0.002180767478,
724.9974976,-0.01928537712,724.9974976,0.005746588577,724.9974976,0.006489343941,724.9974976,0.002018846339,
723.9995117,-0.01957835816,723.9995117,0.006087853573,723.9995117,0.006823594216,723.9995117,0.002066103043,
723.0010986,-0.01967049763,723.0010986,0.00604189001,723.0010986,0.006920557935,723.0010986,0.002004568931,
722.0024414,-0.01981678419,722.0024414,0.006150992587,722.0024414,0.007006810047,722.0024414,0.002407923108,
721.0033569,-0.01961874031,721.0033569,0.006210543681,721.0033569,0.0069267652,721.0033569,0.00207187701,
720.0039673,-0.01921891235,720.0039673,0.005944334902,720.0039673,0.006838346366,720.0039673,0.002049067058,
719.0042725,-0.01898436993,719.0042725,0.00608620001,719.0042725,0.006741979159,719.0042725,0.002060875064,
718.0042725,-0.01863946207,718.0042725,0.005950292107,718.0042725,0.006638352759,718.0042725,0.002250132617,
717.0038452,-0.01834688894,717.0038452,0.006220495794,717.0038452,0.006943467539,717.0038452,0.00221224851,
716.0031128,-0.01790440828,716.0031128,0.006228426471,716.0031128,0.006904751062,716.0031128,0.002280629473,
715.0020752,-0.0173410587,715.0020752,0.006212670822,715.0020752,0.006697102915,715.0020752,0.00209315354,
714.0006104,-0.01691169292,714.0006104,0.006223436911,714.0006104,0.006820832845,714.0006104,0.002179492731,
712.9988403,-0.01629798859,712.9988403,0.006072654389,712.9988403,0.00671968516,712.9988403,0.002109176712,
711.9968262,-0.01575960964,711.9968262,0.006274226122,711.9968262,0.006847366225,711.9968262,0.00225900556,
710.9943848,-0.01530233864,710.9943848,0.006343381014,710.9943848,0.006995077245,710.9943848,0.002398994984,
709.9916382,-0.01470907591,709.9916382,0.006413519382,709.9916382,0.007116997615,709.9916382,0.002389025874,
708.9885254,-0.01393509749,708.9885254,0.006530520041,708.9885254,0.006760146935,708.9885254,0.002292027464,
707.9851074,-0.01318520214,707.9851074,0.00647297455,707.9851074,0.007081528194,707.9851074,0.002144216327,
707.0171509,-0.01263349503,707.0171509,0.006264430005,707.0171509,0.007185576484,707.0171509,0.002318701707,
706.0131226,-0.01169537287,706.0131226,0.006604473107,706.0131226,0.006811392959,706.0131226,0.00235417462,
705.008667,-0.01097072475,705.008667,0.006334082689,705.008667,0.006880896632,705.008667,0.00221295096,
704.0039063,-0.01040967554,704.0039063,0.006577639375,704.0039063,0.007104262244,704.0039063,0.002323073801,
702.9988403,-0.009598265402,702.9988403,0.006578769535,702.9988403,0.006987237837,702.9988403,0.002284194576,
701.9934692,-0.008972356096,701.9934692,0.006644871552,701.9934692,0.007210447453,701.9934692,0.002339599887,
700.9876709,-0.008219981566,700.9876709,0.006578191184,700.9876709,0.007173839025,700.9876709,0.002404773375,
700.0175781,-0.007510979194,700.0175781,0.00660581328,700.0175781,0.007167233154,700.0175781,0.002442023484,
699.0111694,-0.006831397302,699.0111694,0.006573854946,699.0111694,0.00704808766,699.0111694,0.002208996098,
698.0044556,-0.006253081374,698.0044556,0.006733382121,698.0044556,0.007151364814,698.0044556,0.002349672141,
696.9974365,-0.005407937802,696.9974365,0.006430726964,696.9974365,0.00702490937,696.9974365,0.002009848133,
695.9900513,-0.005057802889,695.9900513,0.006635698024,695.9900513,0.00726590585,695.9900513,0.002114066854,
694.9822998,-0.00472464459,694.9822998,0.006780812982,694.9822998,0.007268248592,694.9822998,0.002603034955,
694.0103149,-0.004052123521,694.0103149,0.006947965361,694.0103149,0.007170417812,694.0103149,0.002111647744,
693.0019531,-0.003749400377,693.0019531,0.007022831123,693.0019531,0.007369208615,693.0019531,0.002252656501,
691.9932861,-0.00328911352,691.9932861,0.006871428806,691.9932861,0.007203130983,691.9932861,0.002549861325,
690.9842529,-0.002799841808,690.9842529,0.00689325761,690.9842529,0.007315053139,690.9842529,0.002453217516,
690.0109863,-0.002368567046,690.0109863,0.007009387948,690.0109863,0.007365864702,690.0109863,0.002454102505,
689.0012817,-0.002106350381,689.0012817,0.007016964722,689.0012817,0.007454680745,689.0012817,0.002603998408,
687.991394,-0.001581132412,687.991394,0.007163443603,687.991394,0.007365654223,687.991394,0.002570249839,
687.0171509,-0.001135271275,687.0171509,0.006937181111,687.0171509,0.007144680712,687.0171509,0.002156338887,
686.0065308,-0.001036737114,686.0065308,0.007448571268,686.0065308,0.007660952397,686.0065308,0.002398135839,
684.9956055,-0.0006167868269,684.9956055,0.007140628062,684.9956055,0.007425845601,684.9956055,0.002722478006,
683.984314,-7.454519073E-005,683.984314,0.006897465792,683.984314,0.007164706942,683.984314,0.002234806772,
683.0089111,0.0002659043821,683.0089111,0.006886024959,683.0089111,0.007144733332,683.0089111,0.002209724626,
681.9970093,0.0003722961992,681.9970093,0.007250165101,681.9970093,0.007381082978,681.9970093,0.00251780916,
680.9848022,0.0009465935291,680.9848022,0.007199841086,680.9848022,0.007228871342,680.9848022,0.002334550954,
680.0084839,0.001097449102,680.0084839,0.007180576213,680.0084839,0.007392826024,680.0084839,0.002281774534,
678.9956665,0.001349407132,678.9956665,0.007342090365,678.9956665,0.007639348507,678.9956665,0.002454805421,
677.9824829,0.001372362138,677.9824829,0.007349672727,677.9824829,0.007727904245,677.9824829,0.002741650213,
677.005127,0.001810297719,677.005127,0.00730562862,677.005127,0.007408493198,677.005127,0.002420834033,
675.991394,0.002240218921,675.991394,0.007086895872,675.991394,0.007199498825,675.991394,0.002257366199,
675.0134888,0.002348110545,675.0134888,0.00729149254,675.0134888,0.007247085683,675.0134888,0.002180221258,
673.9990845,0.00233213068,673.9990845,0.007694993634,673.9990845,0.007831105962,673.9990845,0.002544262912,
672.984375,0.002690830035,672.984375,0.007449571975,672.984375,0.00757522881,672.984375,0.002455091802,
672.0055542,0.002768534701,672.0055542,0.007625807077,672.0055542,0.007517544553,672.0055542,0.002520621056,
670.9901733,0.002985936822,670.9901733,0.007814711891,670.9901733,0.007560820319,670.9901733,0.002632931573,
670.0108032,0.003190305084,670.0108032,0.007878313772,670.0108032,0.00746034272,670.0108032,0.002457825234,
668.994873,0.003365263576,668.994873,0.007964150049,668.994873,0.007607208565,668.994873,0.002650224837,
668.0148926,0.003541075625,668.0148926,0.007992098108,668.0148926,0.007572252303,668.0148926,0.002516194945,
666.99823,0.003085671226,666.99823,0.007915060967,666.99823,0.007560530212,666.99823,0.002686141524,
666.0176392,0.002822568873,666.0176392,0.007862682454,666.0176392,0.007771701552,666.0176392,0.002592774574,
665.0004883,0.002931387164,665.0004883,0.007907073013,665.0004883,0.007574807387,665.0004883,0.002370936098,
663.9829102,0.002778277965,663.9829102,0.00802479405,663.9829102,0.007622804027,663.9829102,0.002566786483,
663.0014038,0.002542180009,663.0014038,0.008141464554,663.0014038,0.00758763589,663.0014038,0.002668378176,
661.9833374,0.00251111784,661.9833374,0.008293812163,661.9833374,0.007822909392,661.9833374,0.002708438085,
661.0012207,0.00255535543,661.0012207,0.008245319128,661.0012207,0.007631313056,661.0012207,0.00258631655,
659.9824219,0.002499089343,659.9824219,0.008418657817,659.9824219,0.007577599492,659.9824219,0.002777392277,
658.9998169,0.002547934419,658.9998169,0.008385271765,658.9998169,0.007709986065,658.9998169,0.002665877808,
658.0168457,0.002519136993,658.0168457,0.00840868149,658.0168457,0.007930167019,658.0168457,0.002712293062,
656.9971313,0.002377260942,656.9971313,0.00860265363,656.9971313,0.007926264778,656.9971313,0.002676296048,
656.0136108,0.00230009458,656.0136108,0.00861329399,656.0136108,0.007770199329,656.0136108,0.002709271619,
654.9933472,0.002676869044,654.9933472,0.00829415489,654.9933472,0.007750065532,654.9933472,0.002700232901,
654.0092163,0.002289945493,654.0092163,0.008606191725,654.0092163,0.008055487648,654.0092163,0.002946998226,
652.9883423,0.002547127195,652.9883423,0.008702814579,652.9883423,0.007543119602,652.9883423,0.002852584934,
652.0036011,0.002531973179,652.0036011,0.008683430031,652.0036011,0.007722001523,652.0036011,0.002596915234,
650.9821777,0.00248917006,650.9821777,0.008808335289,650.9821777,0.007777762599,650.9821777,0.002748709871,
649.9967651,0.002431532834,649.9967651,0.008798455819,649.9967651,0.008027720265,649.9967651,0.002852923702,
649.0112305,0.002501770854,649.0112305,0.008920803666,649.0112305,0.007461711764,649.0112305,0.002787448466,
647.9888916,0.002423306927,647.9888916,0.009140225127,647.9888916,0.008167366497,647.9888916,0.002800813643,
647.0026855,0.002395220567,647.0026855,0.009220942855,647.0026855,0.007890913635,647.0026855,0.002833069069,
646.0162964,0.00242218771,646.0162964,0.00926203467,646.0162964,0.008177521639,646.0162964,0.003073574742,
644.992981,0.002477480564,644.992981,0.009337512776,644.992981,0.008047181182,644.992981,0.0029479363,
644.0059204,0.002598607913,644.0059204,0.009204893373,644.0059204,0.007945694961,644.0059204,0.002962010214,
642.9821167,0.00252338103,642.9821167,0.009237257764,642.9821167,0.008123239502,642.9821167,0.00281462213,
641.9945068,0.002734616864,641.9945068,0.00915762037,641.9945068,0.00802932959,641.9945068,0.002987657208,
641.0066528,0.002632332733,641.0066528,0.009428399615,641.0066528,0.008069491014,641.0066528,0.003114480292,
639.9818726,0.002693799324,639.9818726,0.009389990009,639.9818726,0.00818820484,639.9818726,0.002981401514,
638.9934082,0.002765590791,638.9934082,0.009573259391,638.9934082,0.008023158647,638.9934082,0.002914421493,
638.0046997,0.002784348326,638.0046997,0.009675312787,638.0046997,0.008135635406,638.0046997,0.002884766087,
637.015686,0.00267082639,637.015686,0.009733919054,637.015686,0.008289062418,637.015686,0.003160630586,
635.9897461,0.002742640208,635.9897461,0.009896968491,635.9897461,0.008231125772,635.9897461,0.003010386135,
635.0001831,0.002639182145,635.0001831,0.01007295493,635.0001831,0.008439719677,635.0001831,0.003064919729,
634.0103149,0.002851360245,634.0103149,0.009835295379,634.0103149,0.008140726015,634.0103149,0.003085175995,
632.9834595,0.003048470244,632.9834595,0.009756051004,632.9834595,0.008104645647,632.9834595,0.002782654716,
631.993103,0.002861652756,631.993103,0.009972132742,631.993103,0.008327876218,631.993103,0.002995659132,
631.0023193,0.002899671672,631.0023193,0.01010938454,631.0023193,0.008269142359,631.0023193,0.003027954837,
630.0113525,0.002994929207,630.0113525,0.009887858294,630.0113525,0.008148876019,630.0113525,0.003120607231,
628.9833984,0.002824887633,628.9833984,0.01032222342,628.9833984,0.008333892561,628.9833984,0.003160734894,
627.9918213,0.002918252489,627.9918213,0.01032922138,627.9918213,0.008266002871,627.9918213,0.003227857174,
627.000061,0.003002071055,627.000061,0.01028413232,627.000061,0.008291384205,627.000061,0.003089034464,
626.0079346,0.002988048131,626.0079346,0.01029521227,626.0079346,0.008526246995,626.0079346,0.003161725821,
625.015564,0.002932299394,625.015564,0.01064306963,625.015564,0.008431352675,625.015564,0.003332681721,
623.986145,0.002863789443,623.986145,0.01066617575,623.986145,0.008503148332,623.986145,0.003307483857,
622.9932861,0.002733106026,622.9932861,0.01104005892,622.9932861,0.008879506029,622.9932861,0.003462058259,
622.000061,0.002962505445,622.000061,0.01082593948,622.000061,0.008616489358,622.000061,0.003287530271,
621.0065918,0.002831349382,621.0065918,0.01116710436,621.0065918,0.008591907099,621.0065918,0.003204282373,
620.0128174,0.002885521622,620.0128174,0.01112025511,620.0128174,0.008691299707,620.0128174,0.003342463868,
618.9819946,0.00298403413,618.9819946,0.01104008593,618.9819946,0.008581741713,618.9819946,0.003346820129,
617.9877319,0.002942306921,617.9877319,0.0112755103,617.9877319,0.008697479963,617.9877319,0.003387542674,
616.993103,0.003024461912,616.993103,0.01108073909,616.993103,0.00831898395,616.993103,0.003254745621,
615.998291,0.002903294051,615.998291,0.01154527441,615.998291,0.008722781204,615.998291,0.003518501529,
615.0031738,0.002987943823,615.0031738,0.01144267432,615.0031738,0.008604924195,615.0031738,0.003459814237,
614.0078125,0.00296902121,614.0078125,0.0116913477,614.0078125,0.008745389059,614.0078125,0.003399491543,
613.012146,0.003168296767,613.012146,0.01133210119,613.012146,0.008463870734,613.012146,0.003253441537,
612.0162964,0.003016798291,612.0162964,0.01170451101,612.0162964,0.008675216697,612.0162964,0.003485829802,
610.9831543,0.003068204271,610.9831543,0.01169626694,610.9831543,0.008639435284,610.9831543,0.003382977331,
609.9866333,0.003023288911,609.9866333,0.01182451565,609.9866333,0.008735854179,609.9866333,0.003475626931,
608.9899902,0.003047245089,608.9899902,0.01186492387,608.9899902,0.008726029657,608.9899902,0.003386290511,
607.992981,0.003031760687,607.992981,0.01209520642,607.992981,0.008764195256,607.992981,0.003548983252,
606.9957886,0.003029362531,606.9957886,0.01194338314,606.9957886,0.008755479008,606.9957886,0.003427173244,
605.9981689,0.002876375336,605.9981689,0.01229448058,605.9981689,0.008893113583,605.9981689,0.003542824183,
605.0003662,0.002968421904,605.0003662,0.01232688967,605.0003662,0.008843998425,605.0003662,0.003444785019,
604.0023804,0.002835361985,604.0023804,0.01237410959,604.0023804,0.008927118964,604.0023804,0.003635455854,
603.0039673,0.00262756669,603.0039673,0.01259307005,603.0039673,0.009234560654,603.0039673,0.003697952256,
602.0053711,0.002744073048,602.0053711,0.01241323631,602.0053711,0.009002749808,602.0053711,0.003575917566,
601.0065308,0.002524370328,601.0065308,0.01270631049,601.0065308,0.009131156839,601.0065308,0.003653180553,
600.0074463,0.002356881509,600.0074463,0.01275202539,600.0074463,0.009030818008,600.0074463,0.003694767132,
599.0079956,0.002332182601,599.0079956,0.01282099355,599.0079956,0.009008008987,599.0079956,0.003620655276,
598.0084229,0.002066337038,598.0084229,0.01320877206,598.0084229,0.009161559865,598.0084229,0.00372604467,
597.0085449,0.002038429724,597.0085449,0.0132040754,597.0085449,0.009074851871,597.0085449,0.00365547766,
596.0083008,0.002057233825,596.0083008,0.0130438609,596.0083008,0.009160025977,596.0083008,0.003662369447,
595.0078735,0.001841621706,595.0078735,0.01331125572,595.0078735,0.009338755161,595.0078735,0.00381129887,
594.0072021,0.001741054934,594.0072021,0.01324928273,594.0072021,0.009285650216,594.0072021,0.003886644728,
593.0062866,0.001478116261,593.0062866,0.01348689571,593.0062866,0.009441018105,593.0062866,0.003818532685,
592.0050049,0.00129080459,592.0050049,0.01379346848,592.0050049,0.009353566915,592.0050049,0.003896987997,
591.0036011,0.001260247198,591.0036011,0.01366129797,591.0036011,0.009293451905,591.0036011,0.003723694943,
590.0018311,0.0008819497307,590.0018311,0.01395561732,590.0018311,0.009604222141,590.0018311,0.003901585005,
588.9998779,0.0009996750159,588.9998779,0.01383764111,588.9998779,0.00931915734,588.9998779,0.003718473017,
587.9976196,0.0007278240519,587.9976196,0.01405228768,587.9976196,0.009406205267,587.9976196,0.003855407936,
586.9950562,0.0004070404393,586.9950562,0.01423981041,586.9950562,0.009471494704,586.9950562,0.003907461651,
585.9923706,0.0002380608348,585.9923706,0.01447686926,585.9923706,0.00966056902,585.9923706,0.004037689418,
584.9892578,0.0001642257412,584.9892578,0.01440956444,584.9892578,0.009712900035,584.9892578,0.003941053525,
583.9860229,2.40740178E-006,583.9860229,0.0143242646,583.9860229,0.009636458009,583.9860229,0.003948498052,
582.9824829,-0.0002918438695,582.9824829,0.01461416017,582.9824829,0.009514780715,582.9824829,0.004117908888,
582.0159302,-0.0004703004088,582.0159302,0.01472734008,582.0159302,0.009718141519,582.0159302,0.004214897752,
581.0118408,-0.0007203781861,581.0118408,0.01483953092,581.0118408,0.009730265476,581.0118408,0.00422067428,
580.0075684,-0.0009516637074,580.0075684,0.01489275694,580.0075684,0.009844033048,580.0075684,0.004244356882,
579.0029907,-0.001189641422,579.0029907,0.01509565115,579.0029907,0.009712529369,579.0029907,0.004174071364,
577.99823,-0.001394100953,577.99823,0.01529274136,577.99823,0.009745355695,577.99823,0.004165917169,
576.9931641,-0.001587580424,576.9931641,0.01534444094,576.9931641,0.009841491468,576.9931641,0.004284326918,
575.987854,-0.001789274742,575.987854,0.01535549015,575.987854,0.00980105903,575.987854,0.004220282193,
574.9822998,-0.001998451073,574.9822998,0.01548337471,574.9822998,0.009940905496,574.9822998,0.004161682911,
574.0137329,-0.002172911074,574.0137329,0.01559560001,574.0137329,0.009903986938,574.0137329,0.004151385743,
573.0076904,-0.002503193449,573.0076904,0.01564765908,573.0076904,0.009911878966,573.0076904,0.004150471184,
572.0014038,-0.002844797447,572.0014038,0.01575640962,572.0014038,0.01002254151,572.0014038,0.004258289468,
570.994812,-0.003147483338,570.994812,0.0159836635,570.994812,0.01000230294,570.994812,0.004338811617,
569.9880371,-0.003377788467,569.9880371,0.01610176638,569.9880371,0.01011619437,569.9880371,0.004318365827,
569.0183105,-0.003739801934,569.0183105,0.0163415391,569.0183105,0.01031443011,569.0183105,0.004527887329,
568.0110474,-0.003968408331,568.0110474,0.01639016345,568.0110474,0.01017788146,568.0110474,0.004273687024,
567.003418,-0.004355404526,567.003418,0.01656051911,567.003418,0.01022688206,567.003418,0.004530973732,
565.9956055,-0.004610939883,565.9956055,0.01670586877,565.9956055,0.01029454917,565.9956055,0.004437078722,
564.9876709,-0.004918028601,564.9876709,0.01656904444,564.9876709,0.01024938375,564.9876709,0.004463179037,
564.0167236,-0.005258864257,564.0167236,0.01679357514,564.0167236,0.01042450592,564.0167236,0.004612932913,
563.0081177,-0.005634339061,563.0081177,0.01697334833,563.0081177,0.01051951852,563.0081177,0.004602154251,
561.9993896,-0.005889940076,561.9993896,0.01709446684,561.9993896,0.01046534069,561.9993896,0.004624418449,
560.9903564,-0.006113027222,560.9903564,0.01718163304,560.9903564,0.01040382404,560.9903564,0.004572958685,
560.0184937,-0.006510001607,560.0184937,0.01739193127,560.0184937,0.0105896974,560.0184937,0.004690458998,
559.0089722,-0.00673292391,559.0089722,0.01744754612,559.0089722,0.01059354376,559.0089722,0.004490484018,
557.9992065,-0.007122507785,557.9992065,0.01753879897,557.9992065,0.01061574649,557.9992065,0.004730915185,
556.9891968,-0.007348220795,556.9891968,0.01771648042,556.9891968,0.01066784747,556.9891968,0.004701030441,
556.0164185,-0.007435307838,556.0164185,0.01773492433,556.0164185,0.0105830403,556.0164185,0.004626772832,
555.0059204,-0.007763342466,555.0059204,0.01800182462,555.0059204,0.01068164315,555.0059204,0.004794249777,
553.9952393,-0.008012459613,553.9952393,0.0179781355,553.9952393,0.01080221403,553.9952393,0.004894374404,
552.9842529,-0.008098142222,552.9842529,0.01811221987,552.9842529,0.01070273481,552.9842529,0.004779645242,
552.010498,-0.008236948401,552.010498,0.01833136752,552.010498,0.01095682476,552.010498,0.004900264554,
550.9990234,-0.008343918249,550.9990234,0.01834802702,550.9990234,0.01081131678,550.9990234,0.004812152591,
549.9874268,-0.008435274474,549.9874268,0.01849027537,549.9874268,0.01094312686,549.9874268,0.004958806559,
549.0129395,-0.008449085057,549.0129395,0.01852671616,549.0129395,0.01096930262,549.0129395,0.004961110651,
548.0007935,-0.008403233252,548.0007935,0.01868710108,548.0007935,0.01089319587,548.0007935,0.00493607996,
546.9883423,-0.008344984613,546.9883423,0.01876934431,546.9883423,0.01108222641,546.9883423,0.005033408757,
546.0132446,-0.008327768184,546.0132446,0.01893990487,546.0132446,0.01114067808,546.0132446,0.005039484706,
545.0003662,-0.008169634268,545.0003662,0.0191518683,545.0003662,0.01103164256,545.0003662,0.005058890209,
543.9873047,-0.007948160172,543.9873047,0.01921325549,543.9873047,0.01110588759,543.9873047,0.004978549201,
543.0114746,-0.007616601884,543.0114746,0.01928139105,543.0114746,0.01107404754,543.0114746,0.005055774003,
541.9979248,-0.00734221423,541.9979248,0.0194162298,541.9979248,0.01109985914,541.9979248,0.005022829399,
540.9841309,-0.0071447636,540.9841309,0.01948482916,540.9841309,0.0113433674,540.9841309,0.005197034683,
540.0076294,-0.006812387612,540.0076294,0.0195361916,540.0076294,0.0114264898,540.0076294,0.005055276211,
538.9934082,-0.006612758152,538.9934082,0.01992226392,538.9934082,0.01158791594,538.9934082,0.005330505781,
538.0164795,-0.006115324795,538.0164795,0.01996519417,538.0164795,0.01133457292,538.0164795,0.00525810523,
537.001709,-0.005655444693,537.001709,0.02007267438,537.001709,0.01151183341,537.001709,0.005243747495,
535.9867554,-0.00525298249,535.9867554,0.02009986714,535.9867554,0.01158685237,535.9867554,0.005228394177,
535.0091553,-0.004883064888,535.0091553,0.02035186626,535.0091553,0.01162433997,535.0091553,0.005391228478,
533.9937134,-0.00428282097,533.9937134,0.02030716091,533.9937134,0.01154128648,533.9937134,0.005352178123,
533.015686,-0.003714086022,533.015686,0.02048006468,533.015686,0.0116927838,533.015686,0.005271127447,
531.9997559,-0.003206073307,531.9997559,0.02051789314,531.9997559,0.01176692918,531.9997559,0.005347460974,
530.9836426,-0.002630985575,530.9836426,0.02079750784,530.9836426,0.01178368554,530.9836426,0.005442575552,
530.0050049,-0.002080125269,530.0050049,0.02092198096,530.0050049,0.01170445792,530.0050049,0.005483468529,
528.9884033,-0.001554153278,528.9884033,0.02097299695,528.9884033,0.01183765661,528.9884033,0.005442706402,
528.0092163,-0.001155873877,528.0092163,0.02101363987,528.0092163,0.01204567496,528.0092163,0.00548771536,
526.9921875,-0.0007533527096,526.9921875,0.0210544765,526.9921875,0.01200133841,526.9921875,0.005487820134,
526.0126343,-0.0002854801423,526.0126343,0.02136388421,526.0126343,0.01207897067,526.0126343,0.005576384254,
524.9950562,0.0002689867106,524.9950562,0.02137470618,524.9950562,0.01215664297,524.9950562,0.005567993503,
524.0150757,0.0005844322732,524.0150757,0.02165272459,524.0150757,0.01213068794,524.0150757,0.005649466999,
522.9971924,0.001047728932,522.9971924,0.02153965645,522.9971924,0.01225815993,522.9971924,0.005670499522,
522.0167236,0.001386852469,522.0167236,0.02190456353,522.0167236,0.01234428026,522.0167236,0.005765291397,
520.998291,0.00186044327,520.998291,0.02193543874,520.998291,0.01232848782,520.998291,0.005766209681,
520.0174561,0.002149887383,520.0174561,0.02221043594,520.0174561,0.01233911328,520.0174561,0.005820434541,
518.9985352,0.002454102505,518.9985352,0.02242054045,518.9985352,0.01255533937,518.9985352,0.005989526864,
518.0172119,0.002869209275,518.0172119,0.02249223366,518.0172119,0.01252336614,518.0172119,0.005863934755,
516.9979858,0.003195728874,516.9979858,0.02258902416,516.9979858,0.01263053808,516.9979858,0.005817469675,
516.0161743,0.003260822501,516.0161743,0.02266300842,516.0161743,0.01274533477,516.0161743,0.006028398406,
514.99646,0.003622665303,514.99646,0.02297034487,514.99646,0.0127902003,514.99646,0.006061734166,
514.0143433,0.003847102867,514.0143433,0.02310278453,514.0143433,0.01275565103,514.0143433,0.006185178645,
512.9941406,0.004164923914,512.9941406,0.02315673418,512.9941406,0.01275237184,512.9941406,0.005890146829,
512.0114746,0.004335517064,512.0114746,0.02336524799,512.0114746,0.01295645535,512.0114746,0.00612066919,
510.9909363,0.004306260962,510.9909363,0.02344299853,510.9909363,0.01303401776,510.9909363,0.006100953091,
510.0078735,0.004368749447,510.0078735,0.02376247756,510.0078735,0.01309361309,510.0078735,0.006247097626,
508.9868774,0.004502411,508.9868774,0.02380630933,508.9868774,0.01333074179,508.9868774,0.006276090629,
508.0033875,0.004614947364,508.0033875,0.02400082722,508.0033875,0.01324229036,508.0033875,0.006262014154,
506.9819031,0.004632554948,506.9819031,0.02417512424,506.9819031,0.01326105185,506.9819031,0.006317324936,
505.9980469,0.004571650643,505.9980469,0.02436775528,505.9980469,0.01354003698,505.9980469,0.006459075492,
505.0139465,0.004680750892,505.0139465,0.0244533252,505.0139465,0.01340700965,505.0139465,0.006467824802,
503.9917908,0.004688313231,503.9917908,0.02449969202,503.9917908,0.01349143591,503.9917908,0.006598717067,
503.0072937,0.004576751962,503.0072937,0.02471660636,503.0072937,0.01366509125,503.0072937,0.006575169042,
501.9847717,0.004512402695,501.9847717,0.0249144379,501.9847717,0.01365138777,501.9847717,0.006698548794,
500.9998474,0.004516038112,500.9998474,0.02513010614,500.9998474,0.0137789594,500.9998474,0.006616405677,
500.0147095,0.004449605476,500.0147095,0.02526968159,500.0147095,0.01385346148,500.0147095,0.006793617737,
498.9915161,0.004306470044,498.9915161,0.02535205521,498.9915161,0.01391912997,498.9915161,0.006797772367,
498.006012,0.004136175849,498.006012,0.02565237507,498.006012,0.01410587318,498.006012,0.006893888582,
496.9822998,0.003976737615,496.9822998,0.02582610026,496.9822998,0.01424791478,496.9822998,0.006860278547,
495.9963989,0.003874917747,495.9963989,0.02589508891,495.9963989,0.01408164669,495.9963989,0.006882606074,
495.0102234,0.003562006634,495.0102234,0.02633223683,495.0102234,0.01427447796,495.0102234,0.007126023527,
493.9859924,0.003333386034,493.9859924,0.02647550218,493.9859924,0.01440865453,493.9859924,0.007236714941,
492.9994202,0.003300102195,492.9994202,0.02661490627,492.9994202,0.01421180461,492.9994202,0.007202315144,
492.0126648,0.003251798451,492.0126648,0.02682459168,492.0126648,0.01461341046,492.0126648,0.007234503981,
490.9877319,0.003037365153,490.9877319,0.02690624073,490.9877319,0.01470235549,490.9877319,0.007171470206,
490.0006104,0.002872388344,490.0006104,0.02723365463,490.0006104,0.01473146398,490.0006104,0.007434667088,
489.0132141,0.002807874233,489.0132141,0.02746029384,489.0132141,0.01473925635,489.0132141,0.007406939287,
487.9877014,0.002770540537,487.9877014,0.02769124694,487.9877014,0.01500094496,487.9877014,0.007566773333,
486.9998779,0.002843803959,486.9998779,0.02785877883,486.9998779,0.01516402792,486.9998779,0.007453232072,
486.0119324,0.00279852096,486.0119324,0.02815733105,486.0119324,0.01511291228,486.0119324,0.00760776177,
484.9858093,0.002887945157,484.9858093,0.02841797471,484.9858093,0.01519322023,484.9858093,0.007750908844,
483.997406,0.003204908222,483.997406,0.02850343473,483.997406,0.01563032344,483.997406,0.007729089819,
483.0088501,0.003224988468,483.0088501,0.02875930816,483.0088501,0.01565377787,483.0088501,0.007835112512,
481.9820557,0.00353363785,481.9820557,0.02892559394,481.9820557,0.0158212129,481.9820557,0.007878498174,
480.993103,0.003842480248,480.993103,0.02934976853,480.993103,0.01595705003,480.993103,0.008031122386,
480.0039673,0.004299881868,480.0039673,0.02957469039,480.0039673,0.01598403975,480.0039673,0.008144735359,
479.0146484,0.004839060828,479.0146484,0.02975808643,479.0146484,0.01609131694,479.0146484,0.008104909211,
477.98703,0.005347670522,477.98703,0.03005697578,477.98703,0.01621882804,477.98703,0.008244236931,
476.9972839,0.005868394859,476.9972839,0.03029514104,476.9972839,0.01646656916,476.9972839,0.00832534302,
476.0073242,0.006463253405,476.0073242,0.03061451018,476.0073242,0.01659375988,476.0073242,0.008476831019,
475.0171814,0.007086527534,475.0171814,0.03078456409,475.0171814,0.01669524238,475.0171814,0.008475721814,
473.988739,0.007595933508,473.988739,0.03114753775,473.988739,0.01685608365,473.988739,0.008715174161,
472.9981995,0.00822270941,472.9981995,0.03135919943,472.9981995,0.01689236052,472.9981995,0.008617862128,
472.0074768,0.008792063221,472.0074768,0.0316141434,472.0074768,0.01715561934,472.0074768,0.008809523657,
471.0166016,0.009305378422,471.0166016,0.03191367537,471.0166016,0.01721368171,471.0166016,0.00880640652,
469.9873352,0.009908991866,469.9873352,0.03208716214,469.9873352,0.01734567247,469.9873352,0.008903391659,
468.9960327,0.0103241317,468.9960327,0.03244578838,468.9960327,0.01754378527,468.9960327,0.009070517495,
468.0045776,0.01071754005,468.0045776,0.03285624459,468.0045776,0.01785979047,468.0045776,0.009209176525,
467.0128479,0.01122957841,467.0128479,0.03310609236,467.0128479,0.0178409908,467.0128479,0.009265208617,
465.9828491,0.01162080374,465.9828491,0.03341643885,465.9828491,0.01803873666,465.9828491,0.00938541349,
464.9908142,0.01212589722,464.9908142,0.03355965391,464.9908142,0.01816452667,464.9908142,0.009411098436,
463.9985046,0.01241779141,463.9985046,0.03400982544,463.9985046,0.0183160305,463.9985046,0.009673936293,
463.006073,0.01273731049,463.006073,0.03423549235,463.006073,0.01841859147,463.006073,0.009749061428,
462.0134583,0.01308667753,462.0134583,0.03462563828,462.0134583,0.01851439849,462.0134583,0.009808207862,
460.9823914,0.01339237951,460.9823914,0.03470136598,460.9823914,0.01870118082,460.9823914,0.009709776379,
459.9893494,0.01377446949,459.9893494,0.03503196314,459.9893494,0.01901402697,459.9893494,0.009805031121,
458.9961548,0.0138955554,458.9961548,0.03540858626,458.9961548,0.01920822263,458.9961548,0.01015260164,
458.0027466,0.0140845608,458.0027466,0.03578044847,458.0027466,0.01938851178,458.0027466,0.01027867198,
457.0092163,0.01436653733,457.0092163,0.03603263199,457.0092163,0.01943336427,457.0092163,0.01025301497,
456.0154419,0.01455339231,456.0154419,0.03627978265,456.0154419,0.01959173009,456.0154419,0.01035292167,
454.9832458,0.01471357513,454.9832458,0.03654813766,454.9832458,0.01980314404,454.9832458,0.01054529753,
453.9891052,0.0149151003,453.9891052,0.03681189567,453.9891052,0.01984088682,453.9891052,0.01061659493,
452.994812,0.01503216289,452.994812,0.03711692244,452.994812,0.02011195943,452.994812,0.0107589066,
452.0002441,0.01521083247,452.0002441,0.03738511726,452.0002441,0.02028204501,452.0002441,0.01079648267,
451.0055542,0.0152586624,451.0055542,0.03776268661,451.0055542,0.02038045973,451.0055542,0.01090644114,
450.0107117,0.01536468789,450.0107117,0.03799087554,450.0107117,0.0206312649,450.0107117,0.01114760991,
449.0156555,0.01550097298,449.0156555,0.03835209087,449.0156555,0.02078507096,449.0156555,0.01123672444,
447.9821167,0.01564900018,447.9821167,0.03858885542,447.9821167,0.0209024772,447.9821167,0.01120001357,
446.9866638,0.01571432315,446.9866638,0.0388504006,446.9866638,0.02116369456,446.9866638,0.01142861508,
445.9910583,0.0158602763,445.9910583,0.03919380531,445.9910583,0.02135382406,445.9910583,0.01153336465,
444.9952393,0.01588580944,444.9952393,0.03943743184,444.9952393,0.02160883695,444.9952393,0.01170403231,
443.9992981,0.01604879461,443.9992981,0.03964872286,443.9992981,0.02161397971,443.9992981,0.01175174303,
443.0031128,0.01608307101,443.0031128,0.04004998133,443.0031128,0.02181225456,443.0031128,0.01175618451,
442.0067749,0.01616140828,442.0067749,0.04017740116,442.0067749,0.0219615493,442.0067749,0.01192789711,
441.0102844,0.01626002416,441.0102844,0.04049039632,441.0102844,0.02211770788,441.0102844,0.01198036876,
440.0135803,0.01617946476,440.0135803,0.04088225216,440.0135803,0.02241353504,440.0135803,0.0122176623,
439.0166931,0.01619144715,439.0166931,0.04127013683,439.0166931,0.02259807661,439.0166931,0.01230950002,
437.9812317,0.016145261,437.9812317,0.04168252647,437.9812317,0.02277432196,437.9812317,0.01255421992,
436.9840393,0.01615063474,436.9840393,0.04178486019,436.9840393,0.02294651791,436.9840393,0.01259664074,
435.9866333,0.0159812998,435.9866333,0.04225579649,435.9866333,0.02323663235,435.9866333,0.01271627937,
434.9890137,0.01593105495,434.9890137,0.04245116562,434.9890137,0.02324100025,434.9890137,0.01274277549,
433.991272,0.01587772742,433.991272,0.04280339926,433.991272,0.02348753437,433.991272,0.01288733259,
432.9933472,0.01583468914,432.9933472,0.04311835021,432.9933472,0.02359419502,432.9933472,0.01305735949,
431.9952087,0.01579640619,431.9952087,0.04349218681,431.9952087,0.02372176759,431.9952087,0.01313384622,
430.9968872,0.01566013694,430.9968872,0.0438115634,430.9968872,0.02395101264,430.9968872,0.01339585055,
429.9984131,0.01563281938,429.9984131,0.04404074699,429.9984131,0.02410487831,429.9984131,0.01341857016,
428.9997559,0.01568799466,428.9997559,0.04435356334,428.9997559,0.02434292249,428.9997559,0.01350887306,
428.0009155,0.01564728282,428.0009155,0.04466114938,428.0009155,0.02441041544,428.0009155,0.01363771129,
427.0019226,0.01556235645,427.0019226,0.04494406283,427.0019226,0.02467468195,427.0019226,0.01374612097,
426.0027771,0.01558808703,426.0027771,0.04506723955,426.0027771,0.02468139492,426.0027771,0.01386861503,
425.0034485,0.01546532195,425.0034485,0.04539588094,425.0034485,0.02483513579,425.0034485,0.01403549779,
424.0038757,0.01542312931,424.0038757,0.04571608827,424.0038757,0.02504390851,424.0038757,0.01402330585,
423.0042114,0.01532035973,423.0042114,0.04586209357,423.0042114,0.02510160953,423.0042114,0.01423413958,
422.0043335,0.01518348884,422.0043335,0.04616965726,422.0043335,0.0252996441,422.0043335,0.014338471,
421.0042725,0.01520571206,421.0042725,0.04629289359,421.0042725,0.02540438995,421.0042725,0.0143529987,
420.0040894,0.0149630839,420.0040894,0.04647548124,420.0040894,0.02548670582,420.0040894,0.01421514805,
419.0037231,0.01472771447,419.0037231,0.04676485807,419.0037231,0.02582140267,419.0037231,0.01457403135,
418.0031738,0.01467434783,418.0031738,0.04687346891,418.0031738,0.02582599036,418.0031738,0.01460631657,
417.0024414,0.01457769889,417.0024414,0.04704337567,417.0024414,0.02581428736,417.0024414,0.01474268455,
416.0015564,0.01449458674,416.0015564,0.04723761976,416.0015564,0.0259335842,416.0015564,0.01472163573,
415.0005493,0.01425331831,415.0005493,0.04759188369,415.0005493,0.02615058422,415.0005493,0.01493133511,
413.9992676,0.01418508589,413.9992676,0.04767062888,413.9992676,0.02616625465,413.9992676,0.01483942382,
412.9979248,0.01402108651,412.9979248,0.04777547717,412.9979248,0.02637665905,412.9979248,0.01500357129,
411.9963074,0.01389649138,411.9963074,0.04791122675,411.9963074,0.02642323077,411.9963074,0.0150191132,
410.9945984,0.0138374269,410.9945984,0.04793359712,410.9945984,0.02632945962,410.9945984,0.01503302064,
409.9927063,0.01377524529,409.9927063,0.04795331135,409.9927063,0.02657888085,409.9927063,0.0151638668,
408.9906616,0.01365902741,408.9906616,0.04805045575,408.9906616,0.02648901194,408.9906616,0.01505858637,
407.9883728,0.01348777767,407.9883728,0.04820989072,407.9883728,0.0266930759,407.9883728,0.01525828708,
406.9859924,0.0133725442,406.9859924,0.048335094,406.9859924,0.02667989023,406.9859924,0.01534478925,
405.9834595,0.0133092273,405.9834595,0.04832948372,405.9834595,0.02670216002,405.9834595,0.01548195351,
405.0192871,0.01351592224,405.0192871,0.04823702201,405.0192871,0.02678755857,405.0192871,0.01525485516,
404.016449,0.01352978218,404.016449,0.04836547747,404.016449,0.02676308155,404.016449,0.01528257877,
403.0133972,0.0135801509,403.0133972,0.04851862788,403.0133972,0.02691331878,403.0133972,0.01547736581,
402.0101624,0.01381848007,402.0101624,0.04832988605,402.0101624,0.0267847497,402.0101624,0.01526748296,
401.0067749,0.01387767587,401.0067749,0.04839018732,401.0067749,0.0268879272,401.0067749,0.0153983999,
400.0032349,0.01417379919,400.0032349,0.04847573489,400.0032349,0.02686264738,400.0032349,0.0152400285,
398.9995422,0.01447031181,398.9995422,0.04840387404,398.9995422,0.02675003186,398.9995422,0.0152095193,
397.9956665,0.01466537826,397.9956665,0.04846438766,397.9956665,0.02687936276,397.9956665,0.0153297456,
396.9916687,0.01493114792,396.9916687,0.04847767204,396.9916687,0.02680462971,396.9916687,0.01528188121,
395.9874878,0.01512199827,395.9874878,0.04865223542,395.9874878,0.02695647813,395.9874878,0.0153821744,
394.9831238,0.01572266966,394.9831238,0.04847035185,394.9831238,0.02684400417,394.9831238,0.01518086158,
394.0172424,0.01605674624,394.0172424,0.04842517525,394.0172424,0.02698195726,394.0172424,0.01522010844,
393.0126343,0.01633194275,393.0126343,0.04865935817,393.0126343,0.02687630616,393.0126343,0.01539019309,
392.007782,0.01701577194,392.007782,0.0485037528,392.007782,0.0269787889,392.007782,0.01507581864,
391.0028076,0.01742731035,391.0028076,0.04852621257,391.0028076,0.02692995407,391.0028076,0.01518742926,
389.9976807,0.01788630523,389.9976807,0.04863564298,389.9976807,0.02701627836,389.9976807,0.01516869199,
388.9923706,0.01836900972,388.9923706,0.04869378731,388.9923706,0.0270255357,388.9923706,0.01534720324,
387.986908,0.01910652965,387.986908,0.04872778431,387.986908,0.0269413013,387.986908,0.01527357008,
386.9813232,0.01972314343,386.9813232,0.04867395014,386.9813232,0.02701881342,386.9813232,0.01525657065,
386.0142212,0.02034025639,386.0142212,0.04881776869,386.0142212,0.02711408399,386.0142212,0.01522461232,
385.0082703,0.02118598111,385.0082703,0.04883231223,385.0082703,0.02698471025,385.0082703,0.01518442668,
384.0021973,0.02199174836,384.0021973,0.04891397431,384.0021973,0.02730253525,384.0021973,0.01528223045,
382.9959717,0.02300642617,382.9959717,0.04909187183,382.9959717,0.02721835859,382.9959717,0.01507648826,
381.989563,0.02403291874,381.989563,0.04919550195,381.989563,0.0272198189,381.989563,0.01516158786,
380.9830627,0.02505229972,380.9830627,0.0492278561,380.9830627,0.0274139978,380.9830627,0.01531041134,
380.0150452,0.02623592876,380.0150452,0.04923084006,380.0150452,0.02716968954,380.0150452,0.01524300408,
379.0082092,0.02729724348,379.0082092,0.04968691245,379.0082092,0.02731088921,379.0082092,0.01540582906,
378.0011902,0.02887548879,378.0011902,0.04946603999,378.0011902,0.02741055191,378.0011902,0.01519758999,
376.9940186,0.03018174507,376.9940186,0.04954834655,376.9940186,0.02731298283,376.9940186,0.01491877064,
375.9867249,0.03118124418,375.9867249,0.04968702793,375.9867249,0.02741760947,375.9867249,0.01497205999,
375.0180359,0.03221951425,375.0180359,0.0499766618,375.0180359,0.02761857957,375.0180359,0.0151570309,
374.0104065,0.03360588476,374.0104065,0.04998726398,374.0104065,0.02746622264,374.0104065,0.01497996412,
373.002655,0.03468291834,373.002655,0.05010438338,373.002655,0.02752209641,373.002655,0.01513218321,
371.994751,0.03592408076,371.994751,0.0503270328,371.994751,0.0275602676,371.994751,0.01507455856,
370.9866638,0.03688360751,370.9866638,0.05043090135,370.9866638,0.0277363304,370.9866638,0.01525933202,
370.0172119,0.03783975169,370.0172119,0.05059505254,370.0172119,0.02770244889,370.0172119,0.01512376685,
369.0088806,0.03875461593,369.0088806,0.05093355104,369.0088806,0.02783040702,369.0088806,0.01519673131,
368.0003357,0.03978410736,368.0003357,0.05102309212,368.0003357,0.0279836636,368.0003357,0.01542302128,
366.9916992,0.04091424868,366.9916992,0.05122684315,366.9916992,0.02799550816,366.9916992,0.01515850518,
365.9828796,0.04187803715,365.9828796,0.05156015232,365.9828796,0.02810590528,365.9828796,0.0154611636,
365.0127563,0.04280982539,365.0127563,0.05182268843,365.0127563,0.02809154429,365.0127563,0.01540169865,
364.0036316,0.04365447909,364.0036316,0.05222817883,364.0036316,0.02817415074,364.0036316,0.01541272271,
362.9944153,0.04460113496,362.9944153,0.0525136143,362.9944153,0.02813324705,362.9944153,0.01544515043,
361.9850159,0.04575997591,361.9850159,0.05253841728,361.9850159,0.02869055606,361.9850159,0.01553512458,
361.0142822,0.04657687619,361.0142822,0.05295168236,361.0142822,0.0287759304,361.0142822,0.01575616933,
360.0046082,0.04761519283,360.0046082,0.05334692821,360.0046082,0.02882137708,360.0046082,0.01579375006,
358.994751,0.04869346693,358.994751,0.05363737792,358.994751,0.02860450558,358.994751,0.01568104327,
357.9848328,0.0498078987,357.9848328,0.05404427275,357.9848328,0.02917055972,357.9848328,0.01591129228,
357.0135498,0.05084193125,357.0135498,0.05412431434,357.0135498,0.02915151231,357.0135498,0.01590371877,
356.0032654,0.05173330382,356.0032654,0.05473477766,356.0032654,0.02940580063,356.0032654,0.01601022482,
354.9928894,0.05272665992,354.9928894,0.05525692925,354.9928894,0.02961730957,354.9928894,0.01617014036,
353.9823303,0.05371397361,353.9823303,0.05524264276,353.9823303,0.02965835482,353.9823303,0.01617341861,
353.010498,0.05475791916,353.010498,0.05588574335,353.010498,0.02984012291,353.010498,0.01634763926,
351.9996643,0.05574448034,351.9996643,0.0564461872,351.9996643,0.02998663113,351.9996643,0.01641207375,
350.988678,0.05672319978,350.988678,0.05689033866,350.988678,0.03032331541,350.988678,0.01646936499,
350.0164795,0.05770170689,350.0164795,0.05727763847,350.0164795,0.03059731796,350.0164795,0.01675195247,
349.0052185,0.05895953253,349.0052185,0.05777476728,349.0052185,0.03074205108,349.0052185,0.01678609475,
347.9938354,0.06002402306,347.9938354,0.05841467157,347.9938354,0.03089892492,347.9938354,0.01707295515,
346.9822693,0.0612209104,346.9822693,0.05885719135,346.9822693,0.0310867466,346.9822693,0.01717344671,
346.009491,0.06232592463,346.009491,0.05918160826,346.009491,0.03137213737,346.009491,0.01714005508,
344.9976807,0.06353744864,344.9976807,0.05960522592,344.9976807,0.03153608739,344.9976807,0.0172695443,
343.9857483,0.06480008364,343.9857483,0.06000645831,343.9857483,0.03190690279,343.9857483,0.01747365855,
343.0125732,0.06631229073,343.0125732,0.06062287465,343.0125732,0.03195454553,343.0125732,0.01756545529,
342.0003662,0.06795307994,342.0003662,0.06104116514,342.0003662,0.03234722093,342.0003662,0.01765161008,
340.9879761,0.06961640716,340.9879761,0.06152183563,340.9879761,0.03266179562,340.9879761,0.01775954477,
340.0144348,0.07162555307,340.0144348,0.06195854768,340.0144348,0.03266827017,340.0144348,0.01767509431,
339.00177,0.07399359345,339.00177,0.06244121864,339.00177,0.03301651031,339.00177,0.01780360937,
337.9890137,0.07686590403,337.9890137,0.06278525293,337.9890137,0.03320765495,337.9890137,0.0178209506,
337.0150452,0.08024936914,337.0150452,0.06327031553,337.0150452,0.03351071849,337.0150452,0.01807724498,
336.0019836,0.08403069526,336.0019836,0.06396009028,336.0019836,0.03358507529,336.0019836,0.01807832345,
334.9888,0.08859497309,334.9888,0.06427636743,334.9888,0.03347926214,334.9888,0.01808768883,
334.0144653,0.09363634884,334.0144653,0.06472421438,334.0144653,0.03366285935,334.0144653,0.01802084781,
333.0010376,0.09913516045,333.0010376,0.06511507928,333.0010376,0.03412601724,333.0010376,0.01808059029,
331.9874573,0.1053311303,331.9874573,0.06558537483,331.9874573,0.03420782089,331.9874573,0.01803355664,
331.0126953,0.1105372459,331.0126953,0.06572942436,331.0126953,0.03423084319,331.0126953,0.01793132722,
329.9988708,0.1155021265,329.9988708,0.06618721783,329.9988708,0.03426748142,329.9988708,0.01787869819,
328.9848938,0.1199279279,328.9848938,0.06658169627,328.9848938,0.03446405008,328.9848938,0.01785660721,
328.0097961,0.1236015633,328.0097961,0.06707298011,328.0097961,0.03466068208,328.0097961,0.01801145636,
326.9955139,0.1271339506,326.9955139,0.06751710176,326.9955139,0.03489395604,326.9955139,0.01817810349,
325.9811401,0.1304104328,325.9811401,0.06794935465,325.9811401,0.03513751179,325.9811401,0.01820347644,
325.0056458,0.1334855109,325.0056458,0.06855936348,325.0056458,0.03559322655,325.0056458,0.0186266806,
323.9910278,0.1372843832,323.9910278,0.06896935403,323.9910278,0.03613929451,323.9910278,0.01876077615,
323.0153198,0.1420591176,323.0153198,0.06942965835,323.0153198,0.03623197228,323.0153198,0.01877555996,
322.0003967,0.1479001343,322.0003967,0.0700270012,322.0003967,0.03650860488,322.0003967,0.01880478114,
320.9853821,0.1540020257,320.9853821,0.07081358135,320.9853821,0.03670402244,320.9853821,0.01915925369,
320.0092468,0.1607079208,320.0092468,0.07062266767,320.0092468,0.03651769832,320.0092468,0.01892130263,
318.9939575,0.1679767519,318.9939575,0.07077604532,318.9939575,0.03694369271,318.9939575,0.01915900968,
318.0176392,0.1762476712,318.0176392,0.07122530788,318.0176392,0.03700412437,318.0176392,0.01909476332,
317.0021057,0.1847581118,317.0021057,0.07189767063,317.0021057,0.03767230734,317.0021057,0.01939668506,
315.9864502,0.1935512722,315.9864502,0.0720423013,315.9864502,0.03753763437,315.9864502,0.01960559562,
315.0096741,0.2008779347,315.0096741,0.07233504206,315.0096741,0.03797934949,315.0096741,0.01939947344,
313.9938049,0.2090363503,313.9938049,0.0723053813,313.9938049,0.03768746555,313.9938049,0.01946566068,
313.0168457,0.2170807421,313.0168457,0.07279290259,313.0168457,0.03772213683,313.0168457,0.01935511082,
312.0006714,0.2246947438,312.0006714,0.07329500467,312.0006714,0.03842861205,312.0006714,0.01944384165,
310.9843445,0.2318971306,310.9843445,0.07386368513,310.9843445,0.03896056488,310.9843445,0.02008780278,
310.007019,0.2391646802,310.007019,0.07421407104,310.007019,0.0392437242,310.007019,0.02037609182,
308.990509,0.2479363829,308.990509,0.07463970035,308.990509,0.03943845257,308.990509,0.02058148384,
308.0129395,0.2568029165,308.0129395,0.07492795587,308.0129395,0.04018259421,308.0129395,0.02067670785,
306.9961548,0.2691517174,306.9961548,0.07511489838,306.9961548,0.04027960449,306.9961548,0.02109901421,
306.0183411,0.2807221711,306.0183411,0.07596322894,306.0183411,0.04054168984,306.0183411,0.02125002258,
305.0013428,0.2944145799,305.0013428,0.07684285194,305.0013428,0.04140619934,305.0013428,0.02158432454,
303.9841614,0.3099732101,303.9841614,0.07821403444,303.9841614,0.04253212363,303.9841614,0.02211618237,
303.0060425,0.3283545375,303.0060425,0.07938874513,303.0060425,0.0432895422,303.0060425,0.02259968594,
301.9886475,0.3496059477,301.9886475,0.08075416088,301.9886475,0.04405619204,301.9886475,0.02381052077,
301.0102539,0.3721646369,301.0102539,0.08190054446,301.0102539,0.0451143384,301.0102539,0.02415437996,
299.9926147,0.4003486931,299.9926147,0.08454608917,299.9926147,0.0461271368,299.9926147,0.02478262223,
299.0140076,0.4373858273,299.0140076,0.08577264845,299.0140076,0.04522000998,299.0140076,0.02501807734,
297.9961548,0.4896659553,297.9961548,0.09027037024,297.9961548,0.0488210991,297.9961548,0.02706115693,
297.0172729,0.5579795837,297.0172729,0.09226580709,297.0172729,0.04953978583,297.0172729,0.02669582888,
295.999176,0.653821528,295.999176,0.09859164059,295.999176,0.0506250672,295.999176,0.02997492626,
294.9809265,0.7820199132,294.9809265,0.1047192514,294.9809265,0.05377895385,294.9809265,0.03174089268,
294.00177,0.9223513007,294.00177,0.1166875809,294.00177,0.06213341653,294.00177,0.03741722181,
292.9833069,1.098585606,292.9833069,0.1129946932,292.9833069,0.06446184218,292.9833069,0.03934185952,
292.0038757,1.189350247,292.0038757,0.1328990459,292.0038757,0.07187417895,292.0038757,0.03835401312,
290.9851685,1.187278032,290.9851685,0.1508945823,290.9851685,0.08034931123,290.9851685,0.0447717607,
290.0055542,1.194636226,290.0055542,0.1715821475,290.0055542,0.09177979827,290.0055542,0.05316426978,
288.9866333,1.264356136,288.9866333,0.1949617267,288.9866333,0.1065546721,288.9866333,0.06416394562,
288.0067749,1.398469806,288.0067749,0.2206372321,288.0067749,0.1101240218,288.0067749,0.07054509968,
286.9875793,1.571991801,286.9875793,0.2500292659,286.9875793,0.1340916306,286.9875793,0.07969970256,
286.0075378,1.757569432,286.0075378,0.2867493033,286.0075378,0.1478258371,286.0075378,0.08812802285,
284.9881592,1.998441339,284.9881592,0.3280059099,284.9881592,0.1737551838,284.9881592,0.1131617427,
284.0078735,2.279362917,284.0078735,0.3335743546,284.0078735,0.1812033057,284.0078735,0.1199182048,
282.9882202,2.63051486,282.9882202,0.3427376747,282.9882202,0.1816374213,282.9882202,0.1226450577,
282.0077209,2.94909215,282.0077209,0.3086140454,282.0077209,0.1723277569,282.0077209,0.1105302051,
280.987915,3.292537451,280.987915,0.2056294531,280.987915,0.1408713758,280.987915,0.09509444237,
280.0071716,3.484197855,280.0071716,0.1095613167,280.0071716,0.1129900962,280.0071716,0.0666686669,
278.9870911,3.65423274,278.9870911,-0.01482041832,278.9870911,-0.03566593304,278.9870911,-0.01506062038,
278.0061646,3.659108639,278.0061646,0.008626470342,278.0061646,0.01868475042,278.0061646,0.05899226665,
276.9858704,3.700205088,276.9858704,-0.01488936134,276.9858704,0.1048046798,276.9858704,0.062402457,
276.0046997,3.72430563,276.0046997,0.0286496859,276.0046997,-0.08877746761,276.0046997,0.021717133,
274.9841919,3.76819396,274.9841919,0.03439439088,274.9841919,-0.07936190814,274.9841919,-0.03985512629,
274.0028687,3.711638451,274.0028687,0.09681744128,274.0028687,0.122142069,274.0028687,0.06760123372,
272.9821167,3.897685528,272.9821167,-0.05413449556,272.9821167,0.03084092028,272.9821167,0.003956152126,
272.0005493,3.821001291,272.0005493,0.09452840686,272.0005493,0.03994902223,272.0005493,0.08533243835,
271.0188904,3.833949804,271.0188904,0.02019750886,271.0188904,0.01265692245,271.0188904,0.2585484982,
269.9978333,3.722260475,269.9978333,0.1718162,269.9978333,0.130572319,269.9978333,0.06676248461,
269.0159302,3.795558929,269.0159302,0.3367326856,269.0159302,0.1232246384,269.0159302,0.1460668892,
267.9946594,3.806139231,267.9946594,0.1900783628,267.9946594,0.1843328178,267.9946594,-0.05850523338,
267.0126038,3.908116817,267.0126038,0.0691190213,267.0126038,-0.03990278021,267.0126038,0.05103802681,
265.9911194,3.843522072,265.9911194,0.0146518033,265.9911194,0.05677565187,265.9911194,-0.02383978665,
265.0088196,3.786918402,265.0088196,0.2521782219,265.0088196,0.001769073075,265.0088196,-0.002494802931,
263.9871216,3.923879862,263.9871216,-0.1798374653,263.9871216,-0.1465864927,263.9871216,0.04593517259,
263.0046387,3.827138424,263.0046387,0.06833346933,263.0046387,0.0137338303,263.0046387,-0.02781003527,
261.9827271,4.069291115,261.9827271,-0.278527081,261.9827271,-0.188999474,261.9827271,-0.2947187126,
261,3.953092098,261,0.01546789706,261,-0.006859783549,261,-0.05947745219,
260.0172729,4.000063419,260.0172729,0.04404877126,260.0172729,0.07368798554,260.0172729,0.07630876452,
258.9950256,3.942764044,258.9950256,0.1522063464,258.9950256,0.1757004112,258.9950256,0.1328650564,
258.0120544,3.987292051,258.0120544,-0.04128042981,258.0120544,-0.1028616279,258.0120544,0.04311440513,
256.989624,4.02050066,256.989624,-0.05993061513,256.989624,0.08883368969,256.989624,-0.1005506366,
256.0064392,4.011081696,256.0064392,-0.08227870613,256.0064392,-0.07864025235,256.0064392,-0.1770427227,
254.9838257,4.021369934,254.9838257,-0.1567822099,254.9838257,-0.05076739937,254.9838257,-0.1180530041,
254.0004272,3.994241714,254.0004272,-0.03076647036,254.0004272,-0.06110006943,254.0004272,-0.04878722504,
253.016983,3.957283258,253.016983,0.1143829897,253.016983,-0.04154605418,253.016983,0.03369010612,
251.9940491,4.056342602,251.9940491,-0.09429675341,251.9940491,0.09591786563,251.9940491,0.03122733347,
251.0103607,4.001182079,251.0103607,0.1100822613,251.0103607,-0.01196254231,251.0103607,-0.03654511273,
249.9872284,3.906206369,249.9872284,0.1152278781,249.9872284,0.009549549781,249.9872284,0.0071405489,
249.0033875,4.002439022,249.0033875,-0.02317813598,249.0033875,-0.02555822954,249.0033875,0.07217524201,
248.0194092,4.145348549,248.0194092,0.08684766293,248.0194092,-0.1122700721,248.0194092,-0.07180125266,
246.9959717,4.099340439,246.9959717,0.05568900704,246.9959717,0.05109011754,246.9959717,0.01884697936,
246.0118561,4.101360321,246.0118561,0.06041874364,246.0118561,-0.05009029061,246.0118561,-0.06588560343,
244.9882355,3.904635668,244.9882355,0.139786467,244.9882355,0.04086396471,244.9882355,0.1600168943,
244.003891,3.97221756,244.003891,-0.1058479249,244.003891,0.1151151285,244.003891,-0.05677321553,
243.0194855,4.044748306,243.0194855,0.0302440729,243.0194855,0.09479159117,243.0194855,-0.02664856426,
241.9955597,4.036219597,241.9955597,0.1896098852,241.9955597,0.05325421318,241.9955597,0.03755278885,
241.0109253,4.030332565,241.0109253,0.09468319267,241.0109253,0.1764310598,241.0109253,0.0680160746,
239.9868317,3.715058088,239.9868317,0.01784142293,239.9868317,0.07181342691,239.9868317,0.08791358769,
239.0020599,3.674122095,239.0020599,-0.01386630442,239.0020599,0.01389710605,239.0020599,0.05103747547,
238.0171356,3.664806366,238.0171356,0.04937867448,238.0171356,0.1297164857,238.0171356,0.1464766115,
236.9927826,3.848963737,236.9927826,0.01452873927,236.9927826,-0.06481131166,236.9927826,-0.2180170566,
236.0077362,3.938244343,236.0077362,-0.08528288454,236.0077362,-0.2240757793,236.0077362,-0.1647139788,
234.9831238,3.966029882,234.9831238,-0.1085582599,234.9831238,-0.0901818648,234.9831238,-0.1540960371,
233.9978638,3.867355585,233.9978638,0.04929712415,233.9978638,-0.128875196,233.9978638,0.002931178547,
233.012558,3.757851362,233.012558,0.1606799364,233.012558,-0.03806720302,233.012558,0.1044731587,
231.9877167,3.847032547,231.9877167,0.04109080508,231.9877167,0.1302994639,231.9877167,0.1828056276,
231.0021973,3.901486635,231.0021973,-0.08039684594,231.0021973,0.03157943115,231.0021973,-0.0374885872,
230.0165863,4.074450493,230.0165863,-0.03713934496,230.0165863,-0.1822084934,230.0165863,-0.00530085573,

Baseline 100%T,
Baseline 100%T
Collection Time: 3/20/2026 3:11:46 PM
Operator Name  :
Scan Version 5.1.0.1016
Parameter List :
Instrument  Cary 60
Instrument Version  2.00
Start (nm)  800.0
Stop (nm)  230.0
X Mode  Nanometers
Y Mode  Abs
UV-Vis Scan Rate (nm/min)  600.000
UV-Vis Data Interval (nm)  1.00
UV-Vis Ave. Time (sec)  0.1000
Beam Mode  Dual Beam
Baseline Correction  On
Baseline Type  Baseline correction
Baseline File Name
Baseline Std Ref File Name
Cycle Mode  Off
Method Log     :
Method Name    :
Date/Time stamp: 3/20/2026 2:40:02 PM
Method Modifications:
UVVIS SAT Changed: 3/20/2026 2:41:04 PM, Old:0.0125, New:0.1000
Common SAT Changed: 3/20/2026 2:41:04 PM, Old:0.0125, New:0.1000
X Stop nm Changed: 3/20/2026 2:41:32 PM, Old:  200.0, New:  230.0
Common Interval nm Changed: 3/20/2026 2:41:32 PM, Old:     5.00, New:     1.00
Baseline Correction Changed: 3/20/2026 2:41:32 PM, Old:0, New:1
Storage Changed: 3/20/2026 2:41:32 PM, Old:1, New:0
End Method Modifications
<Current Wavelength> , 236.0

TigE_30x_2ndbase,
TigE_30x_2ndbase
Collection Time: 3/20/2026 3:13:21 PM
Operator Name  :
Scan Version 5.1.0.1016
Parameter List :
Instrument  Cary 60
Instrument Version  2.00
Start (nm)  800.0
Stop (nm)  230.0
X Mode  Nanometers
Y Mode  Abs
UV-Vis Scan Rate (nm/min)  600.000
UV-Vis Data Interval (nm)  1.00
UV-Vis Ave. Time (sec)  0.1000
Beam Mode  Dual Beam
Baseline Correction  On
Baseline Type  Baseline correction
Baseline File Name
Baseline Std Ref File Name
Cycle Mode  Off
Method Log     :
Method Name    :
Date/Time stamp: 3/20/2026 2:40:02 PM
Method Modifications:
UVVIS SAT Changed: 3/20/2026 2:41:04 PM, Old:0.0125, New:0.1000
Common SAT Changed: 3/20/2026 2:41:04 PM, Old:0.0125, New:0.1000
X Stop nm Changed: 3/20/2026 2:41:32 PM, Old:  200.0, New:  230.0
Common Interval nm Changed: 3/20/2026 2:41:32 PM, Old:     5.00, New:     1.00
Baseline Correction Changed: 3/20/2026 2:41:32 PM, Old:0, New:1
Storage Changed: 3/20/2026 2:41:32 PM, Old:1, New:0
End Method Modifications
<Current Wavelength> , 233.0

TigE_60x_2ndbase1,
TigE_60x_2ndbase1
Collection Time: 3/20/2026 3:15:18 PM
Operator Name  :
Scan Version 5.1.0.1016
Parameter List :
Instrument  Cary 60
Instrument Version  2.00
Start (nm)  800.0
Stop (nm)  230.0
X Mode  Nanometers
Y Mode  Abs
UV-Vis Scan Rate (nm/min)  600.000
UV-Vis Data Interval (nm)  1.00
UV-Vis Ave. Time (sec)  0.1000
Beam Mode  Dual Beam
Baseline Correction  On
Baseline Type  Baseline correction
Baseline File Name
Baseline Std Ref File Name
Cycle Mode  Off
Method Log     :
Method Name    :
Date/Time stamp: 3/20/2026 2:40:02 PM
Method Modifications:
UVVIS SAT Changed: 3/20/2026 2:41:04 PM, Old:0.0125, New:0.1000
Common SAT Changed: 3/20/2026 2:41:04 PM, Old:0.0125, New:0.1000
X Stop nm Changed: 3/20/2026 2:41:32 PM, Old:  200.0, New:  230.0
Common Interval nm Changed: 3/20/2026 2:41:32 PM, Old:     5.00, New:     1.00
Baseline Correction Changed: 3/20/2026 2:41:32 PM, Old:0, New:1
Storage Changed: 3/20/2026 2:41:32 PM, Old:1, New:0
End Method Modifications
<Current Wavelength> , 230.0

TigE_90x_2ndbase,
TigE_90x_2ndbase
Collection Time: 3/20/2026 3:17:04 PM
Operator Name  :
Scan Version 5.1.0.1016
Parameter List :
Instrument  Cary 60
Instrument Version  2.00
Start (nm)  800.0
Stop (nm)  230.0
X Mode  Nanometers
Y Mode  Abs
UV-Vis Scan Rate (nm/min)  600.000
UV-Vis Data Interval (nm)  1.00
UV-Vis Ave. Time (sec)  0.1000
Beam Mode  Dual Beam
Baseline Correction  On
Baseline Type  Baseline correction
Baseline File Name
Baseline Std Ref File Name
Cycle Mode  Off
Method Log     :
Method Name    :
Date/Time stamp: 3/20/2026 2:40:02 PM
Method Modifications:
UVVIS SAT Changed: 3/20/2026 2:41:04 PM, Old:0.0125, New:0.1000
Common SAT Changed: 3/20/2026 2:41:04 PM, Old:0.0125, New:0.1000
X Stop nm Changed: 3/20/2026 2:41:32 PM, Old:  200.0, New:  230.0
Common Interval nm Changed: 3/20/2026 2:41:32 PM, Old:     5.00, New:     1.00
Baseline Correction Changed: 3/20/2026 2:41:32 PM, Old:0, New:1
Storage Changed: 3/20/2026 2:41:32 PM, Old:1, New:0
End Method Modifications
<Current Wavelength> , 234.0

